lead_I,lead_II,lead_III,AVR,AVL,AVF,V1,V2,V3,V4,V5,V6
-0.04,-0.575,-0.535,0.308,0.248,-0.555,0.2,0.25,0.13,0.165,0.135,0.115
-0.04,-0.575,-0.535,0.308,0.248,-0.555,0.2,0.25,0.13,0.165,0.135,0.115
-0.04,-0.575,-0.535,0.308,0.248,-0.555,0.2,0.25,0.13,0.165,0.135,0.115
-0.04,-0.575,-0.535,0.308,0.248,-0.555,0.2,0.25,0.13,0.165,0.135,0.115
-0.04,-0.575,-0.535,0.308,0.248,-0.555,0.2,0.25,0.13,0.165,0.135,0.115
-0.04,-0.575,-0.535,0.308,0.248,-0.555,0.2,0.25,0.13,0.165,0.135,0.115
-0.04,-0.575,-0.535,0.308,0.248,-0.555,0.2,0.246,0.13,0.161,0.135,0.115
-0.04,-0.575,-0.536,0.308,0.248,-0.555,0.197,0.245,0.13,0.16,0.132,0.112
-0.041,-0.574,-0.533,0.308,0.246,-0.554,0.194,0.245,0.13,0.16,0.129,0.109
-0.047,-0.576,-0.53,0.312,0.242,-0.552,0.195,0.245,0.129,0.16,0.13,0.11
-0.055,-0.585,-0.53,0.32,0.238,-0.557,0.195,0.245,0.125,0.16,0.13,0.11
-0.059,-0.59,-0.53,0.324,0.236,-0.56,0.195,0.241,0.125,0.156,0.13,0.11
-0.063,-0.59,-0.527,0.327,0.232,-0.558,0.195,0.24,0.125,0.155,0.13,0.11
-0.066,-0.59,-0.524,0.328,0.229,-0.557,0.195,0.24,0.125,0.155,0.13,0.11
-0.065,-0.59,-0.525,0.328,0.23,-0.557,0.194,0.24,0.124,0.155,0.129,0.109
-0.065,-0.59,-0.525,0.328,0.23,-0.557,0.19,0.24,0.12,0.155,0.125,0.105
-0.069,-0.59,-0.521,0.33,0.226,-0.555,0.19,0.24,0.12,0.155,0.125,0.105
-0.071,-0.59,-0.519,0.33,0.224,-0.555,0.19,0.237,0.121,0.152,0.125,0.105
-0.07,-0.59,-0.52,0.33,0.225,-0.555,0.19,0.234,0.118,0.149,0.125,0.105
-0.071,-0.59,-0.519,0.33,0.224,-0.555,0.19,0.235,0.115,0.15,0.125,0.105
-0.075,-0.59,-0.515,0.333,0.22,-0.552,0.19,0.235,0.115,0.15,0.125,0.105
-0.079,-0.59,-0.511,0.335,0.216,-0.55,0.186,0.235,0.115,0.15,0.121,0.101
-0.083,-0.59,-0.507,0.337,0.212,-0.548,0.185,0.232,0.116,0.147,0.12,0.1
-0.087,-0.59,-0.503,0.339,0.208,-0.546,0.185,0.229,0.113,0.144,0.12,0.1
-0.091,-0.59,-0.499,0.34,0.204,-0.545,0.185,0.23,0.11,0.145,0.12,0.1
-0.095,-0.59,-0.495,0.343,0.2,-0.542,0.185,0.23,0.11,0.145,0.12,0.1
-0.098,-0.59,-0.492,0.345,0.197,-0.54,0.185,0.23,0.11,0.145,0.12,0.1
-0.073,-0.59,-0.517,0.332,0.222,-0.553,0.186,0.231,0.11,0.146,0.121,0.101
-0.056,-0.59,-0.534,0.323,0.239,-0.562,0.183,0.228,0.108,0.143,0.118,0.098
-0.061,-0.59,-0.529,0.325,0.234,-0.56,0.18,0.225,0.105,0.14,0.115,0.095
-0.06,-0.59,-0.53,0.325,0.235,-0.56,0.18,0.225,0.105,0.14,0.115,0.095
-0.06,-0.59,-0.53,0.325,0.235,-0.56,0.18,0.225,0.105,0.14,0.115,0.095
-0.06,-0.59,-0.53,0.325,0.235,-0.56,0.18,0.222,0.102,0.141,0.116,0.095
-0.06,-0.59,-0.53,0.325,0.235,-0.56,0.18,0.22,0.1,0.138,0.113,0.095
-0.06,-0.59,-0.53,0.325,0.235,-0.56,0.179,0.22,0.1,0.135,0.11,0.095
-0.06,-0.59,-0.53,0.325,0.235,-0.56,0.175,0.22,0.1,0.135,0.11,0.095
-0.06,-0.59,-0.53,0.325,0.235,-0.56,0.175,0.22,0.1,0.135,0.11,0.095
-0.061,-0.591,-0.53,0.326,0.234,-0.56,0.175,0.217,0.097,0.136,0.111,0.092
-0.057,-0.588,-0.531,0.322,0.237,-0.56,0.175,0.214,0.094,0.133,0.108,0.089
-0.066,-0.594,-0.528,0.33,0.231,-0.561,0.175,0.215,0.095,0.13,0.105,0.09
-0.09,-0.62,-0.53,0.355,0.22,-0.575,0.175,0.215,0.095,0.13,0.105,0.09
-0.066,-0.639,-0.573,0.352,0.254,-0.606,0.175,0.215,0.095,0.13,0.105,0.09
-0.06,-0.636,-0.576,0.348,0.258,-0.605,0.172,0.212,0.092,0.13,0.105,0.09
-0.067,-0.625,-0.559,0.347,0.246,-0.592,0.169,0.209,0.089,0.13,0.105,0.09
-0.065,-0.618,-0.553,0.342,0.244,-0.585,0.17,0.21,0.09,0.129,0.104,0.09
-0.065,-0.61,-0.545,0.338,0.24,-0.577,0.17,0.21,0.09,0.125,0.1,0.09
-0.065,-0.602,-0.537,0.334,0.236,-0.569,0.17,0.206,0.086,0.125,0.1,0.086
-0.065,-0.594,-0.529,0.33,0.232,-0.561,0.171,0.205,0.085,0.125,0.1,0.085
-0.066,-0.586,-0.52,0.326,0.227,-0.552,0.168,0.205,0.085,0.125,0.1,0.085
-0.064,-0.579,-0.515,0.322,0.226,-0.546,0.165,0.205,0.085,0.124,0.099,0.085
-0.055,-0.575,-0.52,0.315,0.233,-0.547,0.165,0.205,0.085,0.12,0.095,0.085
-0.05,-0.571,-0.52,0.31,0.235,-0.545,0.165,0.201,0.081,0.12,0.095,0.085
-0.05,-0.57,-0.52,0.31,0.235,-0.545,0.165,0.199,0.08,0.12,0.095,0.085
-0.049,-0.569,-0.52,0.309,0.236,-0.544,0.166,0.201,0.08,0.12,0.095,0.085
-0.044,-0.564,-0.52,0.304,0.239,-0.541,0.164,0.199,0.08,0.12,0.095,0.085
-0.04,-0.56,-0.52,0.3,0.24,-0.54,0.165,0.2,0.08,0.12,0.095,0.085
-0.04,-0.56,-0.52,0.3,0.24,-0.54,0.186,0.216,0.084,0.12,0.095,0.085
-0.037,-0.557,-0.52,0.297,0.242,-0.538,0.189,0.225,0.085,0.12,0.095,0.085
-0.034,-0.554,-0.52,0.294,0.243,-0.537,0.184,0.225,0.085,0.12,0.095,0.085
-0.035,-0.555,-0.52,0.295,0.243,-0.537,0.185,0.225,0.085,0.12,0.095,0.085
-0.035,-0.555,-0.52,0.295,0.243,-0.537,0.185,0.225,0.085,0.12,0.095,0.085
-0.035,-0.555,-0.52,0.295,0.243,-0.537,0.185,0.229,0.085,0.12,0.095,0.085
-0.038,-0.555,-0.517,0.297,0.24,-0.536,0.185,0.231,0.085,0.12,0.095,0.085
-0.041,-0.555,-0.514,0.298,0.237,-0.535,0.185,0.229,0.085,0.12,0.095,0.085
-0.04,-0.555,-0.515,0.298,0.238,-0.535,0.185,0.231,0.086,0.12,0.095,0.085
-0.04,-0.555,-0.515,0.298,0.238,-0.535,0.185,0.235,0.09,0.12,0.095,0.085
-0.04,-0.551,-0.511,0.295,0.236,-0.531,0.185,0.235,0.09,0.12,0.095,0.085
-0.04,-0.55,-0.509,0.295,0.235,-0.529,0.185,0.235,0.09,0.12,0.095,0.085
-0.04,-0.55,-0.511,0.295,0.236,-0.53,0.185,0.235,0.09,0.12,0.095,0.085
-0.041,-0.55,-0.509,0.295,0.234,-0.529,0.185,0.236,0.09,0.12,0.095,0.085
-0.045,-0.55,-0.505,0.298,0.23,-0.527,0.185,0.24,0.09,0.12,0.095,0.085
-0.045,-0.55,-0.505,0.298,0.23,-0.527,0.181,0.24,0.09,0.12,0.095,0.085
-0.044,-0.55,-0.506,0.298,0.231,-0.527,0.18,0.24,0.089,0.12,0.095,0.085
-0.047,-0.55,-0.503,0.299,0.228,-0.526,0.18,0.24,0.092,0.12,0.095,0.085
-0.05,-0.549,-0.5,0.299,0.225,-0.524,0.18,0.24,0.095,0.12,0.095,0.085
-0.045,-0.545,-0.5,0.295,0.228,-0.522,0.18,0.24,0.095,0.12,0.095,0.085
-0.044,-0.545,-0.5,0.295,0.229,-0.522,0.18,0.24,0.095,0.12,0.095,0.085
-0.048,-0.545,-0.497,0.297,0.225,-0.521,0.18,0.239,0.095,0.12,0.095,0.085
-0.051,-0.545,-0.494,0.298,0.222,-0.52,0.18,0.242,0.095,0.12,0.095,0.085
-0.05,-0.545,-0.495,0.298,0.223,-0.52,0.18,0.245,0.095,0.12,0.095,0.085
-0.05,-0.545,-0.495,0.298,0.223,-0.52,0.18,0.245,0.095,0.12,0.095,0.085
-0.054,-0.545,-0.491,0.3,0.219,-0.518,0.18,0.245,0.095,0.12,0.095,0.085
-0.055,-0.545,-0.489,0.3,0.218,-0.517,0.18,0.245,0.095,0.12,0.094,0.085
-0.055,-0.546,-0.491,0.3,0.218,-0.518,0.179,0.245,0.094,0.119,0.097,0.084
-0.055,-0.544,-0.489,0.299,0.218,-0.516,0.181,0.245,0.087,0.112,0.1,0.079
-0.05,-0.535,-0.485,0.293,0.218,-0.51,0.19,0.245,0.085,0.11,0.1,0.08
-0.042,-0.527,-0.485,0.285,0.222,-0.506,0.194,0.245,0.115,0.14,0.104,0.097
-0.034,-0.519,-0.485,0.277,0.226,-0.502,0.198,0.248,0.12,0.145,0.106,0.099
-0.026,-0.511,-0.485,0.269,0.23,-0.498,0.2,0.251,0.113,0.139,0.104,0.094
-0.019,-0.503,-0.484,0.261,0.233,-0.494,0.201,0.25,0.116,0.139,0.106,0.095
-0.015,-0.495,-0.48,0.255,0.233,-0.487,0.205,0.25,0.115,0.135,0.11,0.095
-0.011,-0.487,-0.475,0.249,0.233,-0.481,0.205,0.25,0.111,0.135,0.11,0.095
-0.006,-0.481,-0.475,0.244,0.235,-0.478,0.208,0.25,0.11,0.132,0.11,0.095
-0.007,-0.48,-0.473,0.243,0.233,-0.476,0.211,0.25,0.11,0.129,0.11,0.094
-0.01,-0.48,-0.47,0.245,0.23,-0.475,0.21,0.25,0.111,0.131,0.11,0.096
-0.01,-0.48,-0.47,0.245,0.23,-0.475,0.21,0.25,0.115,0.135,0.11,0.1
-0.014,-0.48,-0.466,0.247,0.226,-0.473,0.214,0.249,0.114,0.138,0.117,0.099
-0.019,-0.48,-0.461,0.25,0.221,-0.47,0.215,0.257,0.122,0.151,0.128,0.11
-0.02,-0.48,-0.46,0.25,0.22,-0.47,0.216,0.26,0.138,0.168,0.142,0.13
-0.021,-0.48,-0.459,0.251,0.219,-0.47,0.214,0.253,0.145,0.175,0.15,0.141
-0.025,-0.48,-0.455,0.253,0.215,-0.467,0.205,0.25,0.14,0.17,0.145,0.135
-0.021,-0.476,-0.454,0.249,0.217,-0.465,0.196,0.25,0.136,0.166,0.141,0.131
-0.016,-0.475,-0.458,0.246,0.221,-0.466,0.192,0.247,0.132,0.162,0.137,0.127
-0.015,-0.475,-0.461,0.245,0.224,-0.467,0.187,0.245,0.13,0.158,0.135,0.123
-0.015,-0.475,-0.46,0.245,0.223,-0.467,0.178,0.244,0.129,0.155,0.134,0.12
-0.015,-0.475,-0.46,0.245,0.223,-0.467,0.17,0.24,0.125,0.155,0.13,0.12
-0.011,-0.475,-0.464,0.243,0.227,-0.47,0.166,0.24,0.121,0.151,0.126,0.116
-0.01,-0.475,-0.465,0.243,0.228,-0.47,0.159,0.238,0.12,0.147,0.125,0.112
-0.01,-0.475,-0.465,0.243,0.228,-0.47,0.153,0.232,0.119,0.143,0.124,0.108
-0.01,-0.474,-0.464,0.242,0.228,-0.469,0.148,0.23,0.114,0.139,0.119,0.104
-0.01,-0.47,-0.46,0.24,0.225,-0.465,0.14,0.23,0.11,0.135,0.115,0.1
-0.01,-0.47,-0.46,0.24,0.225,-0.465,0.136,0.226,0.111,0.135,0.115,0.1
-0.009,-0.47,-0.461,0.24,0.226,-0.465,0.129,0.225,0.104,0.132,0.112,0.097
-0.012,-0.47,-0.458,0.241,0.223,-0.464,0.123,0.223,0.097,0.128,0.108,0.093
-0.016,-0.47,-0.455,0.243,0.22,-0.462,0.119,0.22,0.094,0.124,0.104,0.089
-0.015,-0.47,-0.455,0.243,0.22,-0.462,0.115,0.22,0.09,0.12,0.1,0.085
-0.014,-0.47,-0.455,0.243,0.221,-0.462,0.115,0.212,0.086,0.116,0.096,0.081
-0.019,-0.471,-0.452,0.245,0.217,-0.461,0.115,0.207,0.082,0.112,0.092,0.076
-0.019,-0.468,-0.449,0.244,0.215,-0.459,0.115,0.201,0.078,0.108,0.088,0.075
-0.023,-0.473,-0.45,0.248,0.214,-0.462,0.115,0.194,0.074,0.104,0.084,0.074
-0.04,-0.49,-0.45,0.265,0.205,-0.47,0.115,0.19,0.07,0.1,0.08,0.07
-0.042,-0.491,-0.45,0.267,0.204,-0.471,0.115,0.182,0.07,0.1,0.08,0.07
-0.036,-0.487,-0.451,0.262,0.207,-0.469,0.116,0.177,0.07,0.101,0.077,0.071
-0.052,-0.499,-0.447,0.276,0.198,-0.473,0.113,0.173,0.07,0.098,0.074,0.068
-0.062,-0.518,-0.456,0.29,0.197,-0.486,0.11,0.17,0.07,0.095,0.075,0.065
-0.035,-0.52,-0.485,0.278,0.225,-0.502,0.11,0.17,0.07,0.095,0.075,0.065
-0.037,-0.519,-0.482,0.278,0.223,-0.501,0.11,0.166,0.066,0.095,0.071,0.065
-0.047,-0.526,-0.479,0.286,0.216,-0.502,0.11,0.164,0.065,0.092,0.069,0.062
-0.052,-0.533,-0.48,0.292,0.214,-0.506,0.11,0.166,0.065,0.089,0.071,0.059
-0.056,-0.536,-0.48,0.296,0.212,-0.508,0.11,0.164,0.065,0.09,0.069,0.06
-0.06,-0.54,-0.48,0.3,0.21,-0.51,0.11,0.16,0.065,0.09,0.065,0.06
-0.061,-0.54,-0.479,0.3,0.209,-0.51,0.11,0.16,0.065,0.086,0.065,0.056
-0.059,-0.543,-0.484,0.301,0.213,-0.513,0.107,0.157,0.066,0.084,0.066,0.054
-0.079,-0.545,-0.466,0.312,0.194,-0.505,0.104,0.154,0.063,0.086,0.063,0.056
-0.084,-0.546,-0.461,0.316,0.189,-0.503,0.105,0.155,0.06,0.084,0.06,0.054
-0.045,-0.55,-0.505,0.298,0.23,-0.527,0.105,0.155,0.06,0.08,0.06,0.05
-0.048,-0.551,-0.503,0.299,0.228,-0.527,0.105,0.151,0.06,0.08,0.056,0.05
-0.045,-0.544,-0.498,0.295,0.227,-0.521,0.105,0.15,0.06,0.081,0.054,0.051
-0.023,-0.523,-0.5,0.273,0.239,-0.511,0.105,0.148,0.06,0.078,0.056,0.048
-0.028,-0.528,-0.5,0.278,0.236,-0.514,0.105,0.144,0.059,0.075,0.054,0.045
-0.07,-0.57,-0.5,0.32,0.215,-0.535,0.105,0.145,0.055,0.075,0.05,0.045
-0.069,-0.565,-0.496,0.317,0.214,-0.53,0.103,0.146,0.055,0.075,0.05,0.045
-0.058,-0.552,-0.495,0.305,0.218,-0.523,0.117,0.142,0.055,0.072,0.051,0.042
-0.053,-0.548,-0.495,0.301,0.221,-0.521,0.127,0.14,0.055,0.069,0.048,0.04
-0.048,-0.543,-0.495,0.296,0.224,-0.519,0.125,0.14,0.055,0.07,0.045,0.04
-0.04,-0.535,-0.495,0.288,0.228,-0.515,0.125,0.14,0.055,0.07,0.045,0.04
-0.031,-0.527,-0.495,0.279,0.233,-0.511,0.125,0.144,0.054,0.07,0.045,0.041
-0.03,-0.522,-0.492,0.276,0.231,-0.507,0.125,0.148,0.059,0.073,0.045,0.034
-0.028,-0.518,-0.489,0.273,0.231,-0.503,0.125,0.154,0.058,0.075,0.045,0.027
-0.024,-0.515,-0.49,0.269,0.233,-0.502,0.124,0.18,0.065,0.075,0.045,0.024
-0.025,-0.515,-0.49,0.27,0.233,-0.502,0.125,0.225,0.09,0.075,0.045,0.02
-0.026,-0.515,-0.489,0.271,0.232,-0.502,0.143,0.267,0.103,0.074,0.045,0.012
-0.019,-0.512,-0.493,0.266,0.237,-0.503,0.173,0.367,0.147,0.081,0.045,0.007
-0.029,-0.508,-0.479,0.269,0.225,-0.494,0.223,0.487,0.213,0.104,0.044,0.001
-0.029,-0.512,-0.483,0.271,0.227,-0.497,0.267,0.59,0.292,0.14,0.047,0.004
0.02,-0.51,-0.53,0.245,0.275,-0.52,0.285,0.69,0.395,0.19,0.07,0.03
0.055,-0.462,-0.517,0.204,0.286,-0.49,0.314,0.764,0.499,0.269,0.12,0.048
0.074,-0.422,-0.496,0.174,0.285,-0.458,0.294,0.748,0.6,0.353,0.183,0.092
0.132,-0.351,-0.483,0.11,0.308,-0.417,0.263,0.66,0.699,0.472,0.282,0.18
0.202,-0.235,-0.437,0.017,0.32,-0.336,0.216,0.491,0.783,0.641,0.43,0.303
0.235,-0.09,-0.325,-0.072,0.28,-0.207,0.1,0.215,0.84,0.82,0.595,0.445
0.302,0.123,-0.179,-0.212,0.24,-0.028,-0.04,-0.112,0.877,0.967,0.756,0.599
0.365,0.31,-0.055,-0.338,0.21,0.127,-0.213,-0.514,0.874,1.13,0.942,0.77
0.412,0.486,0.074,-0.45,0.169,0.28,-0.375,-0.907,0.858,1.294,1.117,0.932
0.429,0.651,0.221,-0.541,0.103,0.436,-0.499,-1.214,0.847,1.432,1.259,1.067
0.39,0.785,0.395,-0.588,-0.003,0.59,-0.595,-1.455,0.835,1.565,1.405,1.2
0.317,0.944,0.627,-0.631,-0.155,0.785,-0.641,-1.66,0.826,1.713,1.562,1.345
0.295,0.978,0.682,-0.637,-0.194,0.829,-0.685,-1.777,0.783,1.732,1.584,1.359
0.252,0.833,0.582,-0.542,-0.166,0.707,-0.748,-1.789,0.664,1.581,1.458,1.255
0.148,0.63,0.481,-0.389,-0.167,0.555,-0.781,-1.751,0.492,1.337,1.265,1.113
0.055,0.49,0.435,-0.273,-0.19,0.462,-0.76,-1.725,0.33,1.095,1.075,0.97
-0.012,0.372,0.384,-0.18,-0.198,0.378,-0.751,-1.704,0.142,0.861,0.905,0.84
-0.094,0.232,0.326,-0.069,-0.21,0.279,-0.71,-1.688,-0.222,0.531,0.674,0.683
-0.198,0.08,0.278,0.059,-0.238,0.178,-0.653,-1.652,-0.62,0.174,0.426,0.509
-0.243,-0.038,0.205,0.141,-0.224,0.083,-0.61,-1.56,-0.789,-0.034,0.252,0.373
-0.19,-0.11,0.08,0.15,-0.135,-0.015,-0.575,-1.395,-0.7,-0.06,0.17,0.295
-0.172,-0.199,-0.027,0.185,-0.072,-0.113,-0.542,-1.19,-0.636,-0.099,0.111,0.221
-0.188,-0.302,-0.113,0.246,-0.037,-0.208,-0.481,-1.004,-0.584,-0.132,0.047,0.165
-0.146,-0.343,-0.197,0.245,0.026,-0.27,-0.395,-0.82,-0.496,-0.129,0.018,0.111
-0.109,-0.354,-0.244,0.231,0.068,-0.298,-0.302,-0.63,-0.398,-0.111,0.02,0.068
-0.165,-0.405,-0.24,0.285,0.038,-0.322,-0.225,-0.475,-0.33,-0.1,0.015,0.06
-0.148,-0.412,-0.264,0.28,0.058,-0.338,-0.176,-0.363,-0.27,-0.084,0.011,0.053
-0.132,-0.409,-0.277,0.271,0.072,-0.342,-0.131,-0.276,-0.207,-0.071,0.007,0.041
-0.137,-0.41,-0.273,0.274,0.068,-0.341,-0.093,-0.195,-0.16,-0.059,0.003,0.031
-0.123,-0.41,-0.287,0.266,0.082,-0.349,-0.062,-0.124,-0.126,-0.047,-0.001,0.022
-0.09,-0.41,-0.32,0.25,0.115,-0.365,-0.03,-0.065,-0.09,-0.035,-0.005,0.01
-0.088,-0.41,-0.322,0.249,0.117,-0.366,-0.002,-0.007,-0.069,-0.023,-0.001,0.001
-0.095,-0.413,-0.318,0.254,0.112,-0.365,0.026,0.033,-0.05,-0.013,0.001,0.002
-0.09,-0.416,-0.325,0.253,0.118,-0.37,0.054,0.069,-0.033,-0.008,0.0,0.007
-0.077,-0.415,-0.338,0.247,0.131,-0.376,0.073,0.102,-0.023,-0.004,0.0,0.011
-0.07,-0.415,-0.345,0.243,0.138,-0.38,0.075,0.12,-0.015,0.0,0.0,0.015
-0.066,-0.416,-0.35,0.241,0.142,-0.382,0.074,0.129,-0.007,0.004,0.0,0.016
-0.063,-0.411,-0.348,0.237,0.143,-0.379,0.078,0.133,0.001,0.005,0.003,0.012
-0.071,-0.428,-0.357,0.25,0.143,-0.392,0.08,0.139,0.009,0.006,0.006,0.009
-0.081,-0.454,-0.373,0.267,0.146,-0.413,0.081,0.147,0.017,0.011,0.005,0.01
-0.075,-0.455,-0.38,0.265,0.153,-0.417,0.09,0.155,0.025,0.015,0.005,0.01
-0.07,-0.455,-0.385,0.263,0.158,-0.42,0.094,0.163,0.029,0.015,0.005,0.01
-0.073,-0.455,-0.382,0.264,0.155,-0.418,0.098,0.168,0.03,0.017,0.005,0.01
-0.075,-0.455,-0.38,0.265,0.153,-0.417,0.102,0.172,0.03,0.022,0.005,0.01
-0.075,-0.455,-0.379,0.265,0.152,-0.417,0.106,0.176,0.031,0.025,0.006,0.01
-0.08,-0.455,-0.375,0.268,0.148,-0.415,0.11,0.18,0.035,0.025,0.01,0.01
-0.085,-0.459,-0.375,0.272,0.145,-0.417,0.11,0.184,0.036,0.025,0.01,0.01
-0.085,-0.46,-0.376,0.273,0.145,-0.417,0.11,0.188,0.033,0.025,0.01,0.01
-0.087,-0.46,-0.373,0.274,0.143,-0.416,0.11,0.192,0.042,0.025,0.01,0.01
-0.09,-0.46,-0.37,0.275,0.14,-0.415,0.11,0.195,0.058,0.025,0.01,0.01
-0.09,-0.46,-0.37,0.275,0.14,-0.415,0.11,0.195,0.06,0.025,0.01,0.01
-0.09,-0.46,-0.37,0.275,0.14,-0.415,0.11,0.199,0.06,0.025,0.014,0.006
-0.09,-0.457,-0.367,0.274,0.139,-0.412,0.11,0.2,0.06,0.024,0.015,0.005
-0.091,-0.455,-0.364,0.273,0.137,-0.41,0.11,0.202,0.06,0.027,0.015,0.005
-0.089,-0.454,-0.365,0.272,0.139,-0.41,0.11,0.205,0.06,0.03,0.015,0.005
-0.085,-0.45,-0.365,0.268,0.14,-0.407,0.11,0.205,0.06,0.03,0.015,0.005
-0.09,-0.45,-0.361,0.27,0.136,-0.405,0.11,0.209,0.06,0.034,0.015,0.005
-0.087,-0.447,-0.36,0.267,0.137,-0.403,0.11,0.21,0.06,0.035,0.016,0.005
-0.086,-0.445,-0.359,0.266,0.137,-0.401,0.11,0.21,0.06,0.035,0.013,0.005
-0.081,-0.444,-0.363,0.263,0.141,-0.403,0.11,0.21,0.06,0.035,0.01,0.005
-0.06,-0.435,-0.375,0.248,0.158,-0.405,0.11,0.21,0.06,0.035,0.01,0.005
-0.055,-0.427,-0.372,0.241,0.159,-0.399,0.11,0.21,0.06,0.035,0.01,0.005
-0.053,-0.419,-0.367,0.236,0.158,-0.393,0.11,0.21,0.06,0.035,0.01,0.005
-0.048,-0.411,-0.363,0.23,0.158,-0.387,0.11,0.21,0.06,0.035,0.01,0.005
-0.044,-0.403,-0.359,0.224,0.158,-0.381,0.11,0.211,0.06,0.035,0.01,0.006
-0.04,-0.395,-0.355,0.218,0.158,-0.375,0.11,0.215,0.06,0.035,0.01,0.01
-0.034,-0.385,-0.351,0.21,0.159,-0.367,0.11,0.215,0.06,0.035,0.01,0.01
-0.044,-0.395,-0.35,0.219,0.153,-0.372,0.11,0.215,0.06,0.038,0.007,0.009
-0.05,-0.398,-0.348,0.225,0.149,-0.373,0.11,0.215,0.06,0.041,0.004,0.012
-0.043,-0.388,-0.345,0.216,0.151,-0.366,0.11,0.215,0.06,0.04,0.005,0.015
-0.04,-0.385,-0.345,0.213,0.153,-0.365,0.11,0.215,0.06,0.04,0.005,0.015
-0.041,-0.382,-0.341,0.211,0.15,-0.361,0.11,0.215,0.06,0.04,0.005,0.015
-0.034,-0.374,-0.34,0.204,0.153,-0.357,0.11,0.215,0.063,0.04,0.005,0.014
-0.029,-0.368,-0.338,0.199,0.155,-0.353,0.11,0.217,0.067,0.04,0.005,0.017
-0.029,-0.364,-0.335,0.197,0.153,-0.349,0.111,0.221,0.071,0.04,0.005,0.02
-0.025,-0.36,-0.335,0.193,0.155,-0.347,0.115,0.225,0.075,0.04,0.005,0.02
-0.026,-0.356,-0.331,0.191,0.153,-0.343,0.115,0.229,0.076,0.04,0.009,0.02
-0.022,-0.352,-0.33,0.187,0.155,-0.34,0.115,0.232,0.073,0.039,0.01,0.02
-0.037,-0.365,-0.328,0.202,0.146,-0.346,0.115,0.239,0.083,0.043,0.012,0.022
-0.056,-0.381,-0.325,0.219,0.134,-0.352,0.115,0.246,0.097,0.052,0.015,0.025
-0.045,-0.37,-0.325,0.208,0.14,-0.347,0.115,0.25,0.095,0.055,0.015,0.025
-0.045,-0.362,-0.317,0.204,0.136,-0.339,0.115,0.254,0.095,0.055,0.019,0.025
-0.043,-0.354,-0.311,0.199,0.134,-0.333,0.115,0.255,0.095,0.055,0.02,0.028
-0.037,-0.346,-0.309,0.192,0.136,-0.327,0.115,0.255,0.095,0.055,0.022,0.03
-0.035,-0.338,-0.303,0.187,0.134,-0.32,0.115,0.255,0.095,0.055,0.026,0.03
-0.035,-0.33,-0.295,0.183,0.13,-0.312,0.115,0.255,0.095,0.055,0.025,0.03
-0.035,-0.326,-0.291,0.18,0.128,-0.308,0.115,0.255,0.095,0.055,0.025,0.03
-0.035,-0.322,-0.287,0.179,0.126,-0.304,0.115,0.254,0.097,0.058,0.028,0.033
-0.035,-0.318,-0.283,0.177,0.124,-0.3,0.115,0.258,0.103,0.06,0.031,0.036
-0.035,-0.315,-0.28,0.175,0.123,-0.297,0.115,0.259,0.105,0.061,0.03,0.035
-0.035,-0.315,-0.28,0.175,0.123,-0.297,0.115,0.26,0.105,0.065,0.03,0.035
-0.035,-0.311,-0.276,0.173,0.12,-0.293,0.115,0.285,0.121,0.065,0.034,0.035
-0.035,-0.31,-0.275,0.173,0.12,-0.292,0.115,0.29,0.129,0.068,0.035,0.038
-0.035,-0.309,-0.273,0.172,0.119,-0.29,0.115,0.282,0.131,0.069,0.037,0.041
-0.034,-0.304,-0.269,0.169,0.118,-0.286,0.115,0.288,0.136,0.072,0.04,0.04
-0.03,-0.3,-0.27,0.165,0.12,-0.285,0.115,0.3,0.14,0.085,0.04,0.04
-0.03,-0.3,-0.271,0.165,0.12,-0.285,0.115,0.304,0.141,0.09,0.044,0.04
-0.03,-0.297,-0.267,0.164,0.119,-0.282,0.115,0.308,0.138,0.091,0.045,0.04
-0.031,-0.296,-0.265,0.164,0.118,-0.28,0.115,0.313,0.147,0.088,0.047,0.039
-0.029,-0.293,-0.264,0.161,0.118,-0.279,0.115,0.315,0.163,0.093,0.05,0.042
-0.02,-0.28,-0.26,0.15,0.12,-0.27,0.115,0.32,0.17,0.11,0.05,0.05
-0.012,-0.272,-0.26,0.142,0.124,-0.266,0.115,0.338,0.174,0.111,0.05,0.054
-0.004,-0.261,-0.257,0.133,0.127,-0.259,0.112,0.335,0.181,0.108,0.048,0.061
0.003,-0.251,-0.254,0.124,0.129,-0.253,0.107,0.345,0.187,0.116,0.059,0.067
0.013,-0.242,-0.256,0.115,0.135,-0.249,0.105,0.368,0.192,0.127,0.079,0.071
0.025,-0.23,-0.255,0.103,0.14,-0.242,0.105,0.37,0.2,0.13,0.085,0.075
0.021,-0.222,-0.243,0.101,0.132,-0.233,0.101,0.374,0.204,0.134,0.089,0.075
0.022,-0.211,-0.233,0.095,0.128,-0.222,0.096,0.377,0.207,0.14,0.093,0.078
0.028,-0.199,-0.227,0.086,0.128,-0.212,0.095,0.384,0.214,0.15,0.097,0.08
0.03,-0.187,-0.217,0.079,0.124,-0.202,0.094,0.391,0.221,0.156,0.101,0.081
0.03,-0.175,-0.205,0.073,0.118,-0.19,0.09,0.395,0.23,0.16,0.105,0.09
0.034,-0.163,-0.197,0.065,0.115,-0.179,0.09,0.416,0.251,0.177,0.109,0.094
0.038,-0.151,-0.189,0.057,0.114,-0.17,0.087,0.425,0.258,0.182,0.113,0.098
0.042,-0.139,-0.181,0.049,0.112,-0.16,0.084,0.426,0.252,0.18,0.118,0.1
0.046,-0.127,-0.173,0.041,0.11,-0.149,0.085,0.432,0.259,0.18,0.12,0.1
0.05,-0.115,-0.165,0.033,0.108,-0.14,0.085,0.44,0.28,0.185,0.12,0.105
0.05,-0.107,-0.157,0.029,0.104,-0.132,0.081,0.443,0.288,0.206,0.136,0.117
0.05,-0.099,-0.149,0.025,0.1,-0.124,0.08,0.457,0.302,0.217,0.147,0.124
0.05,-0.091,-0.141,0.021,0.096,-0.116,0.078,0.47,0.314,0.226,0.155,0.126
0.05,-0.083,-0.133,0.017,0.092,-0.108,0.074,0.476,0.323,0.245,0.169,0.133
0.05,-0.075,-0.125,0.013,0.088,-0.1,0.075,0.48,0.34,0.26,0.185,0.145
0.048,-0.069,-0.117,0.011,0.083,-0.093,0.076,0.483,0.351,0.267,0.193,0.148
0.067,-0.046,-0.112,-0.01,0.09,-0.079,0.072,0.497,0.373,0.288,0.207,0.165
0.09,-0.016,-0.106,-0.037,0.098,-0.061,0.07,0.509,0.392,0.307,0.221,0.18
0.102,0.003,-0.099,-0.053,0.1,-0.048,0.069,0.51,0.396,0.31,0.226,0.18
0.105,0.01,-0.095,-0.057,0.1,-0.042,0.065,0.515,0.4,0.315,0.23,0.185
0.1,0.014,-0.087,-0.056,0.093,-0.037,0.065,0.523,0.412,0.331,0.241,0.202
0.103,0.021,-0.082,-0.062,0.092,-0.03,0.066,0.529,0.425,0.342,0.255,0.209
0.104,0.027,-0.077,-0.065,0.09,-0.024,0.063,0.528,0.435,0.35,0.262,0.211
0.1,0.032,-0.068,-0.066,0.084,-0.018,0.06,0.524,0.441,0.364,0.268,0.217
0.1,0.04,-0.06,-0.07,0.08,-0.01,0.06,0.525,0.445,0.375,0.285,0.225
0.099,0.043,-0.056,-0.07,0.077,-0.007,0.06,0.525,0.448,0.379,0.29,0.229
0.11,0.06,-0.05,-0.084,0.079,0.005,0.057,0.522,0.459,0.387,0.292,0.236
0.115,0.075,-0.04,-0.095,0.078,0.017,0.054,0.52,0.47,0.404,0.299,0.243
0.117,0.083,-0.034,-0.1,0.075,0.024,0.055,0.52,0.476,0.417,0.306,0.246
0.13,0.1,-0.03,-0.115,0.08,0.035,0.055,0.52,0.48,0.42,0.31,0.25
0.13,0.105,-0.026,-0.117,0.078,0.04,0.051,0.52,0.484,0.42,0.314,0.254
0.131,0.106,-0.025,-0.118,0.077,0.041,0.049,0.517,0.485,0.423,0.315,0.258
0.127,0.102,-0.025,-0.114,0.076,0.038,0.051,0.514,0.487,0.425,0.317,0.26
0.136,0.111,-0.025,-0.123,0.08,0.043,0.049,0.515,0.49,0.425,0.319,0.26
0.155,0.13,-0.025,-0.142,0.09,0.052,0.045,0.515,0.49,0.43,0.32,0.26
0.132,0.106,-0.025,-0.118,0.078,0.04,0.045,0.511,0.495,0.435,0.341,0.266
0.153,0.131,-0.022,-0.142,0.087,0.055,0.045,0.51,0.492,0.432,0.344,0.287
0.172,0.153,-0.019,-0.163,0.096,0.067,0.045,0.51,0.489,0.429,0.339,0.296
0.156,0.136,-0.02,-0.146,0.088,0.058,0.044,0.511,0.49,0.43,0.339,0.288
0.15,0.13,-0.02,-0.14,0.085,0.055,0.04,0.51,0.49,0.43,0.335,0.285
0.146,0.126,-0.02,-0.136,0.083,0.053,0.038,0.498,0.49,0.43,0.335,0.285
0.14,0.12,-0.02,-0.13,0.079,0.049,0.054,0.489,0.49,0.43,0.332,0.283
0.131,0.11,-0.02,-0.12,0.075,0.045,0.075,0.479,0.491,0.431,0.331,0.277
0.133,0.104,-0.029,-0.118,0.08,0.038,0.087,0.468,0.487,0.428,0.328,0.275
0.145,0.1,-0.045,-0.122,0.095,0.027,0.09,0.46,0.47,0.415,0.315,0.275
0.134,0.088,-0.046,-0.111,0.09,0.021,0.09,0.448,0.458,0.407,0.307,0.264
0.121,0.076,-0.044,-0.098,0.082,0.015,0.089,0.439,0.443,0.396,0.3,0.251
0.109,0.063,-0.045,-0.085,0.077,0.009,0.092,0.429,0.429,0.386,0.289,0.239
0.098,0.053,-0.045,-0.075,0.071,0.005,0.096,0.418,0.416,0.376,0.277,0.227
0.09,0.045,-0.045,-0.067,0.067,0.0,0.095,0.41,0.395,0.355,0.27,0.215
0.076,0.018,-0.059,-0.047,0.067,-0.02,0.094,0.398,0.379,0.335,0.263,0.199
0.078,-0.01,-0.088,-0.034,0.083,-0.048,0.104,0.389,0.36,0.312,0.246,0.186
0.06,-0.028,-0.089,-0.016,0.074,-0.058,0.112,0.378,0.342,0.289,0.224,0.174
0.04,-0.045,-0.084,0.002,0.062,-0.064,0.11,0.361,0.325,0.271,0.206,0.162
0.055,-0.065,-0.12,0.005,0.088,-0.092,0.11,0.345,0.3,0.255,0.19,0.15
0.044,-0.082,-0.127,0.019,0.086,-0.104,0.11,0.329,0.279,0.239,0.178,0.138
0.035,-0.087,-0.122,0.027,0.079,-0.104,0.11,0.313,0.263,0.222,0.163,0.126
0.053,-0.082,-0.135,0.015,0.095,-0.109,0.11,0.299,0.247,0.209,0.149,0.114
0.062,-0.089,-0.151,0.014,0.107,-0.12,0.11,0.287,0.23,0.196,0.136,0.103
0.035,-0.11,-0.145,0.038,0.09,-0.127,0.11,0.275,0.21,0.18,0.12,0.095
0.031,-0.114,-0.145,0.042,0.088,-0.129,0.11,0.263,0.19,0.164,0.104,0.083
0.02,-0.123,-0.143,0.051,0.082,-0.133,0.11,0.252,0.173,0.148,0.088,0.074
0.0,-0.137,-0.136,0.068,0.068,-0.136,0.11,0.237,0.157,0.132,0.074,0.064
-0.001,-0.147,-0.146,0.074,0.073,-0.146,0.11,0.222,0.141,0.117,0.062,0.053
0.02,-0.155,-0.175,0.068,0.098,-0.165,0.11,0.21,0.125,0.105,0.05,0.045
0.012,-0.16,-0.172,0.074,0.092,-0.166,0.11,0.198,0.113,0.093,0.042,0.033
0.009,-0.16,-0.169,0.075,0.09,-0.164,0.11,0.186,0.101,0.084,0.034,0.023
-0.009,-0.177,-0.168,0.093,0.08,-0.173,0.11,0.175,0.09,0.075,0.026,0.017
-0.032,-0.197,-0.165,0.115,0.067,-0.181,0.11,0.169,0.083,0.062,0.018,0.015
-0.025,-0.19,-0.165,0.108,0.07,-0.177,0.11,0.165,0.075,0.05,0.01,0.015
-0.028,-0.19,-0.161,0.109,0.066,-0.175,0.11,0.157,0.063,0.042,0.002,0.011
-0.031,-0.19,-0.159,0.111,0.064,-0.174,0.11,0.152,0.054,0.036,-0.004,0.009
-0.027,-0.191,-0.163,0.109,0.068,-0.177,0.11,0.146,0.046,0.035,-0.005,0.011
-0.016,-0.188,-0.172,0.102,0.078,-0.18,0.11,0.139,0.038,0.035,-0.005,0.009
-0.015,-0.19,-0.175,0.103,0.08,-0.182,0.11,0.135,0.035,0.035,-0.005,0.005
-0.05,-0.223,-0.173,0.137,0.061,-0.197,0.11,0.131,0.035,0.031,-0.005,0.005
-0.046,-0.237,-0.191,0.141,0.073,-0.213,0.11,0.129,0.036,0.03,-0.005,0.006
-0.034,-0.234,-0.201,0.134,0.084,-0.217,0.11,0.131,0.033,0.03,-0.005,0.003
-0.041,-0.235,-0.194,0.139,0.077,-0.215,0.11,0.129,0.03,0.03,-0.006,0.0
-0.04,-0.235,-0.195,0.138,0.078,-0.215,0.11,0.125,0.03,0.03,-0.01,0.0
-0.04,-0.235,-0.195,0.138,0.078,-0.215,0.106,0.125,0.03,0.026,-0.01,0.0
-0.04,-0.235,-0.195,0.138,0.078,-0.215,0.105,0.126,0.027,0.025,-0.01,-0.003
-0.04,-0.235,-0.195,0.138,0.078,-0.215,0.105,0.123,0.024,0.025,-0.01,-0.006
-0.041,-0.235,-0.194,0.138,0.077,-0.214,0.105,0.12,0.025,0.025,-0.01,-0.005
-0.045,-0.235,-0.19,0.14,0.073,-0.212,0.105,0.12,0.025,0.025,-0.01,-0.005
-0.045,-0.235,-0.19,0.14,0.073,-0.212,0.105,0.12,0.021,0.021,-0.01,-0.009
-0.045,-0.235,-0.19,0.14,0.073,-0.212,0.105,0.117,0.019,0.019,-0.013,-0.011
-0.045,-0.235,-0.191,0.14,0.074,-0.213,0.105,0.114,0.021,0.021,-0.016,-0.009
-0.045,-0.234,-0.189,0.14,0.072,-0.211,0.105,0.115,0.019,0.019,-0.015,-0.011
-0.04,-0.23,-0.19,0.135,0.075,-0.21,0.105,0.115,0.015,0.015,-0.015,-0.015
-0.014,-0.23,-0.215,0.122,0.101,-0.223,0.105,0.111,0.015,0.015,-0.015,-0.015
-0.011,-0.23,-0.22,0.121,0.104,-0.224,0.105,0.109,0.016,0.015,-0.015,-0.014
-0.017,-0.23,-0.213,0.124,0.098,-0.221,0.105,0.111,0.013,0.015,-0.015,-0.017
-0.014,-0.23,-0.216,0.123,0.101,-0.222,0.104,0.109,0.01,0.014,-0.016,-0.02
-0.015,-0.23,-0.215,0.123,0.1,-0.222,0.1,0.105,0.01,0.01,-0.02,-0.02
-0.02,-0.231,-0.211,0.126,0.095,-0.221,0.1,0.105,0.01,0.01,-0.02,-0.02
-0.013,-0.223,-0.209,0.118,0.098,-0.216,0.1,0.106,0.007,0.01,-0.02,-0.023
-0.028,-0.239,-0.211,0.133,0.092,-0.224,0.1,0.103,0.004,0.01,-0.02,-0.026
-0.053,-0.262,-0.209,0.157,0.078,-0.235,0.1,0.1,0.005,0.011,-0.02,-0.025
-0.045,-0.25,-0.205,0.148,0.08,-0.227,0.1,0.1,0.005,0.015,-0.02,-0.025
-0.041,-0.245,-0.205,0.144,0.082,-0.225,0.1,0.1,0.005,0.015,-0.024,-0.029
-0.037,-0.242,-0.206,0.14,0.085,-0.224,0.1,0.099,0.008,0.015,-0.025,-0.031
-0.035,-0.238,-0.203,0.137,0.084,-0.22,0.1,0.102,0.011,0.015,-0.025,-0.029
-0.035,-0.234,-0.2,0.134,0.083,-0.216,0.1,0.105,0.01,0.015,-0.025,-0.031
-0.03,-0.23,-0.2,0.13,0.085,-0.215,0.1,0.105,0.01,0.015,-0.025,-0.035
-0.025,-0.225,-0.2,0.125,0.088,-0.212,0.1,0.109,0.01,0.015,-0.025,-0.035
-0.031,-0.228,-0.197,0.13,0.083,-0.212,0.098,0.11,0.009,0.014,-0.022,-0.035
-0.036,-0.23,-0.194,0.134,0.079,-0.212,0.106,0.112,0.012,0.017,-0.019,-0.033
-0.036,-0.231,-0.195,0.134,0.08,-0.213,0.115,0.115,0.015,0.02,-0.02,-0.029
-0.04,-0.235,-0.195,0.138,0.078,-0.215,0.11,0.115,0.015,0.02,-0.02,-0.025
-0.04,-0.235,-0.195,0.138,0.078,-0.215,0.11,0.115,0.015,0.02,-0.02,-0.021
-0.042,-0.238,-0.196,0.141,0.077,-0.217,0.11,0.115,0.015,0.02,-0.021,-0.017
-0.048,-0.24,-0.192,0.144,0.072,-0.215,0.11,0.115,0.015,0.02,-0.018,-0.013
-0.04,-0.241,-0.202,0.141,0.081,-0.221,0.11,0.115,0.015,0.02,-0.015,-0.01
-0.015,-0.25,-0.235,0.133,0.11,-0.242,0.11,0.115,0.015,0.02,-0.015,-0.01
-0.017,-0.253,-0.237,0.136,0.11,-0.245,0.11,0.115,0.019,0.02,-0.015,-0.006
-0.03,-0.264,-0.234,0.147,0.102,-0.249,0.11,0.114,0.02,0.023,-0.015,-0.005
-0.038,-0.273,-0.235,0.156,0.099,-0.254,0.11,0.118,0.02,0.026,-0.015,-0.005
-0.04,-0.275,-0.235,0.158,0.098,-0.255,0.11,0.127,0.02,0.025,-0.015,-0.005
-0.04,-0.275,-0.235,0.158,0.098,-0.255,0.11,0.13,0.02,0.025,-0.015,-0.005
-0.04,-0.275,-0.235,0.158,0.098,-0.255,0.11,0.126,0.02,0.025,-0.011,-0.005
-0.039,-0.274,-0.235,0.157,0.098,-0.255,0.11,0.124,0.023,0.025,-0.01,-0.005
-0.042,-0.277,-0.235,0.16,0.097,-0.256,0.11,0.126,0.026,0.025,-0.01,-0.005
-0.045,-0.28,-0.235,0.163,0.095,-0.257,0.11,0.124,0.025,0.025,-0.01,-0.005
-0.045,-0.28,-0.235,0.163,0.095,-0.257,0.11,0.12,0.025,0.025,-0.01,-0.005
-0.045,-0.28,-0.235,0.163,0.095,-0.257,0.11,0.12,0.025,0.025,-0.01,-0.005
-0.045,-0.28,-0.235,0.163,0.095,-0.257,0.11,0.121,0.025,0.022,-0.007,-0.005
-0.045,-0.28,-0.235,0.163,0.095,-0.257,0.11,0.118,0.025,0.019,-0.004,-0.005
-0.046,-0.281,-0.235,0.164,0.095,-0.258,0.11,0.115,0.025,0.02,-0.005,-0.004
-0.05,-0.285,-0.235,0.168,0.093,-0.26,0.11,0.115,0.025,0.02,-0.005,0.0
-0.051,-0.285,-0.235,0.168,0.092,-0.26,0.11,0.115,0.025,0.02,-0.005,0.0
-0.048,-0.285,-0.237,0.167,0.095,-0.261,0.11,0.112,0.025,0.02,-0.005,0.0
-0.057,-0.285,-0.228,0.171,0.086,-0.257,0.11,0.109,0.025,0.02,-0.005,0.0
-0.055,-0.285,-0.23,0.171,0.088,-0.257,0.11,0.11,0.025,0.02,-0.006,0.0
-0.025,-0.285,-0.26,0.155,0.118,-0.272,0.11,0.11,0.025,0.02,-0.01,0.0
-0.019,-0.281,-0.262,0.15,0.121,-0.271,0.11,0.106,0.025,0.02,-0.01,0.0
-0.021,-0.28,-0.259,0.15,0.119,-0.269,0.113,0.104,0.025,0.02,-0.01,0.0
-0.019,-0.28,-0.261,0.15,0.121,-0.27,0.116,0.106,0.025,0.02,-0.01,0.0
-0.021,-0.28,-0.259,0.15,0.119,-0.269,0.115,0.104,0.025,0.02,-0.01,0.0
-0.02,-0.28,-0.26,0.15,0.12,-0.27,0.115,0.1,0.025,0.02,-0.01,0.0
-0.003,-0.28,-0.277,0.142,0.137,-0.279,0.115,0.1,0.025,0.016,-0.01,0.0
0.002,-0.277,-0.279,0.138,0.14,-0.278,0.115,0.101,0.025,0.015,-0.009,0.001
-0.001,-0.274,-0.274,0.138,0.137,-0.274,0.115,0.098,0.025,0.015,-0.012,-0.002
0.0,-0.275,-0.275,0.138,0.138,-0.275,0.114,0.095,0.025,0.015,-0.015,-0.005
0.0,-0.275,-0.275,0.138,0.138,-0.275,0.11,0.095,0.025,0.015,-0.015,-0.005
-0.001,-0.275,-0.275,0.139,0.138,-0.275,0.11,0.096,0.025,0.015,-0.015,-0.005
0.003,-0.273,-0.276,0.136,0.14,-0.274,0.11,0.093,0.025,0.015,-0.015,-0.005
-0.01,-0.283,-0.273,0.147,0.132,-0.278,0.11,0.103,0.025,0.015,-0.015,-0.005
-0.027,-0.296,-0.27,0.161,0.122,-0.282,0.11,0.116,0.025,0.015,-0.015,-0.005
-0.02,-0.29,-0.27,0.155,0.125,-0.28,0.11,0.11,0.025,0.015,-0.015,-0.005
-0.017,-0.287,-0.27,0.152,0.126,-0.278,0.11,0.11,0.025,0.015,-0.015,-0.005
-0.037,-0.308,-0.271,0.173,0.117,-0.29,0.11,0.11,0.025,0.015,-0.018,-0.005
-0.058,-0.325,-0.267,0.192,0.105,-0.296,0.11,0.11,0.025,0.015,-0.021,-0.005
-0.049,-0.325,-0.276,0.187,0.114,-0.3,0.11,0.11,0.025,0.014,-0.02,-0.005
-0.02,-0.325,-0.305,0.173,0.143,-0.315,0.11,0.11,0.025,0.01,-0.02,-0.005
-0.022,-0.325,-0.302,0.174,0.141,-0.313,0.11,0.11,0.025,0.01,-0.02,-0.005
-0.029,-0.328,-0.299,0.179,0.135,-0.313,0.111,0.111,0.022,0.01,-0.02,-0.005
-0.03,-0.331,-0.3,0.181,0.135,-0.316,0.108,0.108,0.019,0.01,-0.02,-0.005
-0.03,-0.33,-0.3,0.18,0.135,-0.315,0.105,0.105,0.02,0.009,-0.02,-0.005
-0.03,-0.33,-0.3,0.18,0.135,-0.315,0.105,0.105,0.02,0.005,-0.02,-0.005
-0.038,-0.334,-0.296,0.187,0.129,-0.315,0.105,0.105,0.016,0.005,-0.02,-0.009
-0.041,-0.335,-0.295,0.189,0.127,-0.315,0.105,0.105,0.014,0.005,-0.02,-0.01
-0.04,-0.335,-0.295,0.188,0.128,-0.315,0.105,0.105,0.016,0.005,-0.02,-0.01
-0.04,-0.335,-0.295,0.188,0.128,-0.315,0.105,0.105,0.014,0.004,-0.02,-0.01
-0.04,-0.335,-0.295,0.188,0.128,-0.315,0.105,0.105,0.01,0.0,-0.02,-0.01
-0.04,-0.331,-0.291,0.185,0.126,-0.311,0.105,0.105,0.01,0.0,-0.02,-0.014
-0.04,-0.33,-0.29,0.185,0.125,-0.31,0.105,0.102,0.011,0.0,-0.02,-0.015
-0.04,-0.33,-0.29,0.185,0.125,-0.31,0.105,0.099,0.008,0.0,-0.02,-0.015
-0.04,-0.33,-0.29,0.185,0.125,-0.31,0.105,0.1,0.005,0.0,-0.02,-0.015
-0.04,-0.33,-0.29,0.185,0.125,-0.31,0.105,0.1,0.005,0.0,-0.02,-0.015
-0.04,-0.33,-0.29,0.185,0.125,-0.31,0.105,0.1,0.005,-0.004,-0.02,-0.019
-0.043,-0.33,-0.287,0.187,0.122,-0.308,0.102,0.1,0.002,-0.005,-0.02,-0.02
-0.046,-0.33,-0.284,0.188,0.119,-0.307,0.099,0.1,-0.001,-0.005,-0.02,-0.02
-0.045,-0.33,-0.285,0.188,0.12,-0.307,0.1,0.1,0.0,-0.005,-0.021,-0.02
-0.045,-0.33,-0.285,0.188,0.12,-0.307,0.1,0.1,0.0,-0.005,-0.025,-0.02
-0.045,-0.33,-0.285,0.188,0.12,-0.307,0.1,0.1,-0.004,-0.009,-0.025,-0.02
-0.048,-0.33,-0.282,0.189,0.117,-0.306,0.1,0.097,-0.006,-0.01,-0.024,-0.023
-0.051,-0.33,-0.279,0.19,0.114,-0.305,0.1,0.094,-0.004,-0.01,-0.027,-0.026
-0.05,-0.33,-0.28,0.19,0.115,-0.305,0.1,0.095,-0.006,-0.01,-0.03,-0.025
-0.05,-0.33,-0.28,0.19,0.115,-0.305,0.1,0.095,-0.01,-0.01,-0.03,-0.025
-0.05,-0.33,-0.28,0.19,0.115,-0.305,0.1,0.095,-0.01,-0.01,-0.03,-0.025
-0.05,-0.33,-0.28,0.19,0.115,-0.305,0.1,0.092,-0.01,-0.013,-0.033,-0.028
-0.048,-0.33,-0.282,0.189,0.117,-0.306,0.1,0.089,-0.01,-0.016,-0.035,-0.031
-0.035,-0.33,-0.295,0.182,0.13,-0.313,0.1,0.09,-0.011,-0.015,-0.035,-0.03
-0.015,-0.33,-0.315,0.173,0.15,-0.322,0.1,0.09,-0.015,-0.015,-0.035,-0.03
-0.018,-0.33,-0.312,0.174,0.147,-0.321,0.1,0.09,-0.015,-0.015,-0.035,-0.03
-0.02,-0.33,-0.31,0.175,0.145,-0.32,0.1,0.087,-0.015,-0.015,-0.038,-0.029
-0.022,-0.33,-0.308,0.176,0.143,-0.319,0.1,0.084,-0.015,-0.015,-0.041,-0.032
-0.025,-0.33,-0.305,0.178,0.14,-0.317,0.1,0.085,-0.015,-0.015,-0.04,-0.035
-0.025,-0.33,-0.305,0.178,0.14,-0.317,0.1,0.085,-0.015,-0.015,-0.04,-0.035
-0.029,-0.33,-0.301,0.18,0.136,-0.315,0.1,0.085,-0.015,-0.019,-0.04,-0.035
-0.031,-0.331,-0.3,0.18,0.135,-0.315,0.1,0.086,-0.014,-0.02,-0.039,-0.034
-0.03,-0.328,-0.299,0.179,0.135,-0.313,0.1,0.083,-0.017,-0.02,-0.042,-0.037
-0.031,-0.325,-0.294,0.178,0.132,-0.309,0.1,0.08,-0.02,-0.02,-0.045,-0.04
-0.035,-0.325,-0.29,0.18,0.128,-0.307,0.1,0.08,-0.02,-0.02,-0.045,-0.04
-0.04,-0.325,-0.286,0.183,0.123,-0.305,0.1,0.08,-0.02,-0.02,-0.045,-0.04
-0.037,-0.322,-0.285,0.18,0.124,-0.303,0.1,0.081,-0.02,-0.02,-0.045,-0.04
-0.036,-0.319,-0.284,0.178,0.124,-0.301,0.1,0.078,-0.02,-0.02,-0.045,-0.04
-0.042,-0.32,-0.279,0.181,0.119,-0.299,0.1,0.075,-0.02,-0.019,-0.046,-0.041
-0.045,-0.32,-0.275,0.183,0.115,-0.297,0.1,0.075,-0.02,-0.015,-0.05,-0.045
-0.041,-0.316,-0.275,0.179,0.118,-0.295,0.1,0.075,-0.02,-0.015,-0.05,-0.045
-0.042,-0.315,-0.273,0.178,0.116,-0.293,0.1,0.075,-0.023,-0.015,-0.05,-0.045
-0.048,-0.315,-0.267,0.181,0.11,-0.291,0.1,0.075,-0.026,-0.015,-0.05,-0.045
-0.05,-0.315,-0.265,0.183,0.108,-0.29,0.1,0.074,-0.025,-0.015,-0.05,-0.045
-0.05,-0.315,-0.265,0.183,0.108,-0.29,0.1,0.07,-0.025,-0.015,-0.05,-0.045
-0.05,-0.311,-0.261,0.18,0.106,-0.286,0.1,0.07,-0.025,-0.015,-0.054,-0.049
-0.05,-0.31,-0.259,0.18,0.105,-0.284,0.1,0.07,-0.025,-0.015,-0.055,-0.05
-0.049,-0.31,-0.261,0.18,0.106,-0.285,0.1,0.07,-0.025,-0.015,-0.055,-0.05
-0.051,-0.31,-0.259,0.181,0.104,-0.285,0.1,0.069,-0.025,-0.015,-0.055,-0.05
-0.055,-0.31,-0.255,0.183,0.1,-0.282,0.1,0.065,-0.025,-0.015,-0.055,-0.05
-0.051,-0.306,-0.255,0.179,0.102,-0.28,0.1,0.065,-0.025,-0.015,-0.055,-0.05
-0.05,-0.305,-0.255,0.178,0.103,-0.28,0.1,0.065,-0.028,-0.016,-0.058,-0.05
-0.05,-0.305,-0.255,0.178,0.103,-0.28,0.1,0.065,-0.031,-0.013,-0.061,-0.05
-0.051,-0.305,-0.254,0.178,0.102,-0.279,0.1,0.064,-0.03,-0.01,-0.06,-0.05
-0.055,-0.305,-0.25,0.18,0.098,-0.277,0.1,0.06,-0.03,-0.01,-0.06,-0.05
-0.056,-0.305,-0.25,0.181,0.098,-0.277,0.1,0.06,-0.03,-0.01,-0.06,-0.05
-0.052,-0.302,-0.25,0.177,0.099,-0.276,0.1,0.06,-0.03,-0.01,-0.06,-0.05
-0.049,-0.299,-0.25,0.174,0.101,-0.275,0.1,0.06,-0.03,-0.01,-0.06,-0.05
-0.051,-0.3,-0.249,0.176,0.099,-0.275,0.1,0.06,-0.031,-0.01,-0.06,-0.051
-0.055,-0.3,-0.245,0.178,0.095,-0.272,0.1,0.06,-0.035,-0.01,-0.06,-0.055
-0.056,-0.3,-0.245,0.179,0.094,-0.272,0.1,0.056,-0.035,-0.01,-0.064,-0.055
-0.051,-0.297,-0.246,0.175,0.098,-0.271,0.1,0.055,-0.035,-0.01,-0.065,-0.055
-0.051,-0.294,-0.243,0.173,0.096,-0.269,0.1,0.055,-0.035,-0.01,-0.065,-0.055
-0.056,-0.295,-0.24,0.175,0.093,-0.267,0.1,0.055,-0.035,-0.01,-0.065,-0.055
-0.055,-0.295,-0.24,0.175,0.093,-0.267,0.1,0.055,-0.035,-0.01,-0.065,-0.055
-0.055,-0.295,-0.24,0.175,0.093,-0.267,0.1,0.051,-0.035,-0.01,-0.065,-0.055
-0.055,-0.296,-0.241,0.175,0.093,-0.268,0.097,0.05,-0.038,-0.013,-0.065,-0.055
-0.055,-0.293,-0.238,0.174,0.092,-0.265,0.092,0.05,-0.041,-0.017,-0.065,-0.055
-0.055,-0.29,-0.235,0.173,0.09,-0.262,0.09,0.05,-0.04,-0.021,-0.066,-0.055
-0.055,-0.29,-0.235,0.173,0.09,-0.262,0.09,0.05,-0.04,-0.025,-0.07,-0.055
-0.055,-0.29,-0.235,0.173,0.09,-0.262,0.086,0.05,-0.04,-0.025,-0.07,-0.055
-0.054,-0.29,-0.236,0.172,0.091,-0.262,0.085,0.047,-0.04,-0.027,-0.07,-0.054
-0.059,-0.29,-0.232,0.175,0.086,-0.26,0.084,0.044,-0.04,-0.033,-0.07,-0.057
-0.066,-0.289,-0.223,0.178,0.079,-0.256,0.079,0.045,-0.039,-0.035,-0.07,-0.06
-0.065,-0.285,-0.22,0.175,0.078,-0.252,0.075,0.045,-0.035,-0.035,-0.07,-0.06
-0.069,-0.285,-0.216,0.177,0.074,-0.25,0.075,0.045,-0.035,-0.039,-0.07,-0.06
-0.073,-0.285,-0.212,0.179,0.07,-0.248,0.072,0.045,-0.035,-0.044,-0.07,-0.06
-0.076,-0.285,-0.208,0.181,0.066,-0.246,0.07,0.045,-0.035,-0.045,-0.07,-0.06
-0.082,-0.286,-0.204,0.184,0.061,-0.245,0.069,0.045,-0.035,-0.046,-0.071,-0.061
-0.085,-0.285,-0.2,0.185,0.058,-0.242,0.065,0.045,-0.035,-0.05,-0.075,-0.065
-0.066,-0.27,-0.204,0.168,0.07,-0.237,0.065,0.041,-0.035,-0.05,-0.075,-0.065
-0.047,-0.253,-0.205,0.151,0.08,-0.229,0.065,0.04,-0.039,-0.05,-0.074,-0.065
-0.032,-0.237,-0.205,0.135,0.087,-0.221,0.065,0.04,-0.052,-0.05,-0.077,-0.065
-0.017,-0.221,-0.205,0.119,0.095,-0.213,0.065,0.04,-0.06,-0.05,-0.08,-0.065
-0.005,-0.21,-0.205,0.108,0.1,-0.207,0.065,0.04,-0.055,-0.05,-0.08,-0.065
0.004,-0.205,-0.209,0.101,0.107,-0.207,0.065,0.04,-0.055,-0.05,-0.08,-0.073
0.006,-0.205,-0.21,0.1,0.109,-0.207,0.065,0.04,-0.055,-0.052,-0.083,-0.079
0.005,-0.205,-0.21,0.1,0.108,-0.207,0.065,0.04,-0.055,-0.058,-0.086,-0.078
0.005,-0.205,-0.21,0.1,0.108,-0.207,0.065,0.039,-0.055,-0.059,-0.085,-0.075
0.005,-0.205,-0.21,0.1,0.108,-0.207,0.065,0.035,-0.055,-0.055,-0.085,-0.075
0.004,-0.206,-0.21,0.101,0.107,-0.207,0.065,0.035,-0.055,-0.055,-0.085,-0.075
0.012,-0.201,-0.213,0.095,0.113,-0.207,0.066,0.035,-0.055,-0.055,-0.085,-0.075
-0.003,-0.219,-0.216,0.112,0.106,-0.217,0.063,0.035,-0.055,-0.055,-0.085,-0.075
-0.027,-0.242,-0.215,0.135,0.094,-0.228,0.06,0.035,-0.055,-0.055,-0.085,-0.075
-0.02,-0.235,-0.215,0.128,0.098,-0.225,0.06,0.035,-0.055,-0.055,-0.085,-0.075
-0.02,-0.235,-0.215,0.128,0.098,-0.225,0.06,0.035,-0.055,-0.055,-0.085,-0.075
-0.016,-0.232,-0.216,0.125,0.1,-0.224,0.06,0.035,-0.056,-0.055,-0.085,-0.072
-0.018,-0.23,-0.211,0.125,0.096,-0.22,0.06,0.035,-0.053,-0.055,-0.085,-0.069
-0.026,-0.229,-0.204,0.128,0.089,-0.216,0.06,0.036,-0.05,-0.055,-0.085,-0.07
-0.025,-0.225,-0.2,0.125,0.088,-0.212,0.06,0.04,-0.05,-0.055,-0.085,-0.07
-0.033,-0.225,-0.192,0.129,0.08,-0.208,0.06,0.04,-0.05,-0.055,-0.085,-0.07
-0.039,-0.226,-0.187,0.132,0.075,-0.206,0.06,0.04,-0.05,-0.056,-0.085,-0.07
-0.042,-0.223,-0.181,0.133,0.07,-0.202,0.06,0.04,-0.05,-0.053,-0.085,-0.07
-0.046,-0.22,-0.173,0.134,0.063,-0.196,0.06,0.04,-0.05,-0.05,-0.084,-0.07
-0.05,-0.22,-0.17,0.135,0.06,-0.195,0.06,0.04,-0.05,-0.05,-0.08,-0.07
-0.046,-0.216,-0.17,0.131,0.062,-0.192,0.06,0.04,-0.05,-0.05,-0.08,-0.066
-0.045,-0.215,-0.17,0.13,0.063,-0.192,0.058,0.039,-0.05,-0.05,-0.077,-0.065
-0.043,-0.213,-0.17,0.128,0.064,-0.191,0.05,0.042,-0.05,-0.05,-0.074,-0.065
-0.039,-0.209,-0.17,0.124,0.065,-0.19,0.054,0.045,-0.05,-0.05,-0.075,-0.065
-0.04,-0.21,-0.17,0.125,0.065,-0.19,0.08,0.045,-0.05,-0.05,-0.075,-0.065
-0.041,-0.211,-0.17,0.126,0.064,-0.19,0.085,0.045,-0.05,-0.05,-0.071,-0.065
-0.033,-0.204,-0.171,0.119,0.069,-0.188,0.085,0.045,-0.047,-0.05,-0.069,-0.065
-0.03,-0.197,-0.167,0.114,0.068,-0.182,0.085,0.045,-0.044,-0.05,-0.071,-0.065
-0.037,-0.194,-0.158,0.115,0.061,-0.176,0.085,0.045,-0.045,-0.05,-0.069,-0.065
-0.04,-0.19,-0.15,0.115,0.055,-0.17,0.085,0.045,-0.045,-0.05,-0.065,-0.065
-0.04,-0.182,-0.142,0.111,0.051,-0.162,0.085,0.044,-0.045,-0.05,-0.065,-0.061
-0.043,-0.176,-0.134,0.11,0.046,-0.155,0.084,0.051,-0.046,-0.047,-0.066,-0.06
-0.047,-0.173,-0.126,0.11,0.04,-0.15,0.087,0.058,-0.043,-0.044,-0.063,-0.06
-0.051,-0.168,-0.118,0.11,0.033,-0.143,0.09,0.06,-0.04,-0.045,-0.06,-0.06
-0.045,-0.16,-0.115,0.103,0.035,-0.137,0.09,0.06,-0.04,-0.045,-0.06,-0.06
-0.02,-0.152,-0.132,0.086,0.056,-0.142,0.107,0.069,-0.04,-0.045,-0.06,-0.06
-0.013,-0.144,-0.131,0.079,0.059,-0.137,0.109,0.068,-0.04,-0.045,-0.063,-0.06
-0.016,-0.136,-0.12,0.076,0.052,-0.128,0.102,0.064,-0.04,-0.045,-0.066,-0.06
-0.015,-0.128,-0.113,0.072,0.049,-0.12,0.099,0.065,-0.04,-0.045,-0.065,-0.06
-0.015,-0.12,-0.105,0.068,0.045,-0.112,0.095,0.065,-0.04,-0.045,-0.065,-0.06
-0.014,-0.111,-0.097,0.063,0.042,-0.103,0.095,0.065,-0.036,-0.045,-0.065,-0.06
-0.024,-0.112,-0.088,0.069,0.033,-0.1,0.093,0.062,-0.035,-0.045,-0.065,-0.06
-0.033,-0.116,-0.083,0.075,0.026,-0.099,0.087,0.059,-0.035,-0.045,-0.065,-0.06
-0.037,-0.115,-0.078,0.076,0.021,-0.096,0.085,0.06,-0.035,-0.045,-0.065,-0.06
-0.045,-0.115,-0.07,0.08,0.013,-0.092,0.085,0.06,-0.035,-0.045,-0.065,-0.06
-0.049,-0.115,-0.066,0.083,0.009,-0.09,0.081,0.06,-0.035,-0.041,-0.069,-0.06
-0.052,-0.115,-0.063,0.084,0.006,-0.089,0.076,0.061,-0.032,-0.04,-0.07,-0.06
-0.059,-0.115,-0.056,0.087,-0.001,-0.085,0.075,0.058,-0.029,-0.04,-0.07,-0.06
-0.066,-0.115,-0.049,0.091,-0.008,-0.082,0.074,0.055,-0.03,-0.04,-0.07,-0.06
-0.07,-0.115,-0.045,0.093,-0.012,-0.08,0.065,0.055,-0.03,-0.04,-0.07,-0.06
-0.076,-0.115,-0.039,0.095,-0.018,-0.077,0.057,0.055,-0.03,-0.04,-0.07,-0.06
-0.064,-0.115,-0.051,0.09,-0.006,-0.082,0.049,0.056,-0.03,-0.04,-0.07,-0.06
-0.047,-0.115,-0.068,0.081,0.011,-0.091,0.041,0.053,-0.03,-0.04,-0.07,-0.06
-0.03,-0.115,-0.085,0.073,0.028,-0.1,0.033,0.05,-0.031,-0.04,-0.071,-0.06
-0.01,-0.115,-0.105,0.063,0.048,-0.11,0.025,0.05,-0.035,-0.04,-0.075,-0.06
-0.005,-0.115,-0.11,0.06,0.053,-0.112,0.021,0.05,-0.035,-0.04,-0.075,-0.06
-0.005,-0.115,-0.11,0.06,0.053,-0.112,0.017,0.05,-0.034,-0.04,-0.075,-0.06
0.01,-0.115,-0.125,0.053,0.068,-0.12,0.015,0.051,-0.037,-0.04,-0.075,-0.06
0.027,-0.115,-0.141,0.044,0.084,-0.128,0.015,0.048,-0.04,-0.04,-0.075,-0.06
0.015,-0.12,-0.135,0.053,0.075,-0.127,0.015,0.04,-0.04,-0.04,-0.075,-0.06
-0.008,-0.138,-0.131,0.073,0.061,-0.134,0.015,0.036,-0.04,-0.039,-0.075,-0.06
-0.002,-0.133,-0.13,0.068,0.064,-0.131,0.015,0.029,-0.042,-0.05,-0.075,-0.06
0.006,-0.139,-0.146,0.067,0.076,-0.142,0.015,0.023,-0.049,-0.055,-0.075,-0.061
-0.012,-0.173,-0.161,0.093,0.075,-0.167,0.015,0.018,-0.048,-0.048,-0.074,-0.059
-0.04,-0.195,-0.155,0.118,0.058,-0.175,0.015,0.01,-0.045,-0.05,-0.075,-0.06
-0.041,-0.196,-0.155,0.119,0.057,-0.175,0.015,0.006,-0.07,-0.071,-0.091,-0.08
-0.039,-0.195,-0.155,0.117,0.059,-0.175,0.015,0.002,-0.078,-0.08,-0.1,-0.09
-0.04,-0.195,-0.155,0.118,0.058,-0.175,0.015,0.0,-0.074,-0.08,-0.1,-0.09
-0.04,-0.195,-0.155,0.118,0.058,-0.175,0.015,0.0,-0.075,-0.08,-0.101,-0.09
-0.04,-0.195,-0.155,0.118,0.058,-0.175,0.015,0.0,-0.075,-0.08,-0.105,-0.09
-0.047,-0.198,-0.151,0.123,0.052,-0.174,0.015,0.0,-0.075,-0.084,-0.105,-0.09
-0.06,-0.209,-0.15,0.135,0.045,-0.179,0.015,0.0,-0.075,-0.086,-0.108,-0.09
-0.068,-0.218,-0.15,0.143,0.042,-0.184,0.015,0.0,-0.074,-0.084,-0.111,-0.09
-0.071,-0.221,-0.15,0.146,0.039,-0.186,0.015,-0.001,-0.077,-0.086,-0.11,-0.09
-0.075,-0.225,-0.15,0.15,0.038,-0.187,0.015,-0.005,-0.085,-0.09,-0.11,-0.09
-0.071,-0.221,-0.15,0.146,0.04,-0.185,0.015,-0.005,-0.081,-0.09,-0.11,-0.09
-0.069,-0.22,-0.151,0.145,0.04,-0.185,0.015,-0.005,-0.079,-0.09,-0.11,-0.09
-0.07,-0.218,-0.148,0.144,0.039,-0.183,0.015,-0.005,-0.08,-0.09,-0.11,-0.09
-0.07,-0.214,-0.145,0.143,0.038,-0.18,0.015,-0.005,-0.08,-0.089,-0.11,-0.09
-0.07,-0.215,-0.145,0.143,0.038,-0.18,0.015,-0.005,-0.08,-0.085,-0.11,-0.09
-0.07,-0.215,-0.145,0.143,0.038,-0.18,0.015,-0.005,-0.076,-0.085,-0.11,-0.09
-0.067,-0.212,-0.145,0.14,0.039,-0.178,0.015,-0.008,-0.075,-0.085,-0.11,-0.09
-0.064,-0.209,-0.145,0.137,0.041,-0.177,0.015,-0.011,-0.075,-0.085,-0.11,-0.09
-0.066,-0.21,-0.144,0.139,0.039,-0.177,0.014,-0.01,-0.075,-0.085,-0.11,-0.091
-0.07,-0.21,-0.14,0.14,0.035,-0.175,0.01,-0.01,-0.075,-0.085,-0.11,-0.095
-0.066,-0.206,-0.14,0.136,0.037,-0.172,0.01,-0.01,-0.075,-0.085,-0.11,-0.095
-0.064,-0.204,-0.14,0.134,0.038,-0.172,0.011,-0.01,-0.072,-0.085,-0.11,-0.098
-0.066,-0.206,-0.14,0.136,0.038,-0.172,0.008,-0.011,-0.069,-0.085,-0.11,-0.101
-0.064,-0.204,-0.14,0.134,0.038,-0.172,0.005,-0.008,-0.07,-0.085,-0.11,-0.1
-0.06,-0.2,-0.14,0.13,0.04,-0.17,0.005,0.005,-0.07,-0.085,-0.11,-0.1
-0.06,-0.2,-0.14,0.13,0.04,-0.17,0.004,0.017,-0.07,-0.085,-0.109,-0.104
-0.059,-0.199,-0.14,0.13,0.041,-0.169,0.011,0.03,-0.072,-0.085,-0.113,-0.105
-0.046,-0.203,-0.156,0.125,0.055,-0.179,0.017,0.037,-0.063,-0.085,-0.114,-0.105
-0.016,-0.204,-0.188,0.11,0.087,-0.196,0.021,0.052,-0.047,-0.085,-0.117,-0.105
0.015,-0.195,-0.21,0.09,0.113,-0.202,0.025,0.09,-0.035,-0.085,-0.125,-0.11
0.02,-0.187,-0.207,0.084,0.114,-0.197,0.026,0.128,-0.003,-0.087,-0.114,-0.128
0.022,-0.179,-0.201,0.078,0.112,-0.19,0.057,0.221,0.025,-0.07,-0.104,-0.123
0.027,-0.171,-0.198,0.072,0.113,-0.184,0.103,0.317,0.06,-0.055,-0.095,-0.11
0.032,-0.162,-0.194,0.066,0.113,-0.178,0.146,0.407,0.133,-0.029,-0.09,-0.102
0.035,-0.155,-0.19,0.06,0.113,-0.172,0.18,0.525,0.24,0.035,-0.08,-0.09
0.031,-0.154,-0.185,0.062,0.108,-0.169,0.188,0.586,0.333,0.094,-0.024,-0.085
0.069,-0.119,-0.189,0.025,0.129,-0.153,0.198,0.58,0.424,0.168,0.025,-0.047
0.112,-0.042,-0.154,-0.035,0.134,-0.097,0.177,0.514,0.529,0.284,0.102,0.036
0.164,0.072,-0.092,-0.117,0.128,-0.01,0.094,0.361,0.626,0.435,0.238,0.151
0.26,0.225,-0.035,-0.242,0.147,0.095,-0.025,0.11,0.69,0.595,0.4,0.285
0.321,0.411,0.091,-0.366,0.115,0.251,-0.148,-0.198,0.727,0.75,0.558,0.434
0.353,0.569,0.216,-0.461,0.068,0.392,-0.315,-0.605,0.719,0.912,0.734,0.605
0.407,0.731,0.324,-0.569,0.041,0.527,-0.484,-1.016,0.693,1.061,0.897,0.767
0.456,0.906,0.451,-0.681,0.002,0.678,-0.589,-1.318,0.676,1.192,1.042,0.903
0.425,1.065,0.64,-0.745,-0.108,0.852,-0.645,-1.54,0.66,1.325,1.195,1.04
0.338,1.215,0.877,-0.777,-0.27,1.046,-0.724,-1.779,0.644,1.449,1.333,1.172
0.292,1.221,0.929,-0.757,-0.319,1.075,-0.801,-1.904,0.622,1.484,1.372,1.155
0.261,1.087,0.826,-0.675,-0.283,0.957,-0.867,-1.954,0.515,1.365,1.276,1.088
0.195,0.93,0.736,-0.562,-0.271,0.833,-0.922,-1.964,0.335,1.142,1.099,1.021
0.095,0.815,0.72,-0.455,-0.313,0.767,-0.94,-1.905,0.175,0.92,0.925,0.89
-0.009,0.696,0.704,-0.344,-0.357,0.7,-0.894,-1.856,0.006,0.703,0.761,0.755
-0.082,0.572,0.654,-0.246,-0.368,0.613,-0.846,-1.816,-0.303,0.416,0.559,0.604
-0.17,0.431,0.601,-0.131,-0.386,0.516,-0.8,-1.802,-0.693,0.086,0.332,0.433
-0.236,0.295,0.531,-0.03,-0.384,0.413,-0.747,-1.74,-0.894,-0.151,0.148,0.283
-0.215,0.195,0.41,0.01,-0.313,0.302,-0.7,-1.555,-0.81,-0.22,0.05,0.19
-0.191,0.104,0.295,0.044,-0.244,0.199,-0.647,-1.352,-0.753,-0.235,-0.006,0.126
-0.162,0.041,0.203,0.061,-0.183,0.121,-0.566,-1.136,-0.679,-0.23,-0.066,0.06
-0.161,-0.013,0.149,0.087,-0.155,0.067,-0.477,-0.932,-0.584,-0.223,-0.103,0.007
-0.175,-0.059,0.116,0.116,-0.145,0.028,-0.393,-0.75,-0.498,-0.218,-0.121,-0.03
-0.16,-0.08,0.08,0.12,-0.12,0.0,-0.315,-0.585,-0.42,-0.21,-0.15,-0.065
-0.16,-0.097,0.063,0.128,-0.111,-0.017,-0.27,-0.471,-0.371,-0.206,-0.156,-0.085
-0.156,-0.104,0.052,0.13,-0.104,-0.026,-0.227,-0.398,-0.326,-0.199,-0.155,-0.109
-0.142,-0.105,0.037,0.123,-0.089,-0.034,-0.186,-0.329,-0.286,-0.193,-0.155,-0.125
-0.126,-0.105,0.021,0.115,-0.073,-0.042,-0.152,-0.259,-0.251,-0.189,-0.155,-0.125
-0.115,-0.105,0.01,0.11,-0.062,-0.047,-0.12,-0.2,-0.215,-0.18,-0.155,-0.125
-0.106,-0.105,0.001,0.106,-0.053,-0.051,-0.092,-0.142,-0.191,-0.172,-0.155,-0.125
-0.102,-0.105,-0.003,0.104,-0.049,-0.054,-0.065,-0.102,-0.166,-0.167,-0.155,-0.128
-0.096,-0.105,-0.009,0.101,-0.043,-0.057,-0.049,-0.065,-0.149,-0.162,-0.155,-0.131
-0.088,-0.105,-0.016,0.097,-0.036,-0.06,-0.044,-0.035,-0.144,-0.153,-0.155,-0.13
-0.08,-0.1,-0.02,0.09,-0.03,-0.06,-0.04,-0.03,-0.14,-0.145,-0.155,-0.13
-0.066,-0.094,-0.028,0.08,-0.018,-0.061,-0.036,-0.022,-0.132,-0.141,-0.155,-0.134
-0.074,-0.106,-0.032,0.09,-0.02,-0.069,-0.029,-0.014,-0.127,-0.137,-0.155,-0.135
-0.08,-0.122,-0.041,0.101,-0.019,-0.081,-0.022,-0.006,-0.121,-0.135,-0.155,-0.137
-0.074,-0.133,-0.06,0.104,-0.007,-0.096,-0.019,0.002,-0.114,-0.135,-0.156,-0.141
-0.07,-0.145,-0.075,0.108,0.003,-0.11,-0.015,0.01,-0.11,-0.135,-0.16,-0.14
-0.062,-0.141,-0.08,0.102,0.009,-0.111,-0.011,0.013,-0.106,-0.135,-0.16,-0.136
-0.059,-0.139,-0.08,0.099,0.01,-0.11,-0.01,0.025,-0.105,-0.132,-0.16,-0.135
-0.06,-0.14,-0.08,0.1,0.01,-0.11,-0.011,0.045,-0.105,-0.129,-0.16,-0.135
-0.06,-0.14,-0.08,0.1,0.01,-0.11,-0.009,0.056,-0.105,-0.13,-0.16,-0.135
-0.06,-0.14,-0.08,0.1,0.01,-0.11,-0.005,0.055,-0.105,-0.13,-0.16,-0.135
-0.06,-0.14,-0.08,0.1,0.01,-0.11,-0.005,0.055,-0.105,-0.13,-0.16,-0.135
-0.061,-0.141,-0.08,0.101,0.01,-0.11,-0.005,0.055,-0.105,-0.127,-0.16,-0.135
-0.058,-0.138,-0.08,0.098,0.011,-0.109,-0.005,0.055,-0.105,-0.124,-0.16,-0.135
-0.055,-0.135,-0.08,0.095,0.013,-0.107,-0.004,0.055,-0.104,-0.125,-0.16,-0.135
-0.055,-0.135,-0.08,0.095,0.013,-0.107,0.0,0.055,-0.1,-0.125,-0.16,-0.135
-0.055,-0.135,-0.08,0.095,0.013,-0.107,0.0,0.055,-0.1,-0.125,-0.16,-0.135
-0.055,-0.135,-0.08,0.095,0.013,-0.107,0.0,0.055,-0.1,-0.126,-0.161,-0.135
-0.055,-0.135,-0.08,0.095,0.013,-0.107,0.0,0.055,-0.1,-0.123,-0.158,-0.135
-0.055,-0.135,-0.08,0.095,0.013,-0.107,0.001,0.055,-0.1,-0.12,-0.155,-0.134
-0.055,-0.135,-0.08,0.095,0.013,-0.107,0.005,0.055,-0.1,-0.12,-0.155,-0.13
-0.051,-0.131,-0.08,0.091,0.015,-0.105,0.005,0.054,-0.1,-0.12,-0.155,-0.13
-0.05,-0.13,-0.08,0.09,0.015,-0.105,0.004,0.061,-0.101,-0.121,-0.155,-0.13
-0.05,-0.13,-0.08,0.09,0.015,-0.105,0.007,0.068,-0.098,-0.118,-0.155,-0.13
-0.05,-0.13,-0.08,0.09,0.015,-0.105,0.01,0.071,-0.095,-0.115,-0.154,-0.13
-0.05,-0.13,-0.08,0.09,0.015,-0.105,0.01,0.075,-0.095,-0.115,-0.15,-0.13
-0.05,-0.13,-0.08,0.09,0.015,-0.105,0.01,0.074,-0.091,-0.115,-0.15,-0.13
-0.05,-0.131,-0.081,0.091,0.015,-0.106,0.009,0.081,-0.09,-0.115,-0.15,-0.13
-0.05,-0.126,-0.077,0.088,0.013,-0.101,0.012,0.088,-0.088,-0.115,-0.15,-0.13
-0.05,-0.119,-0.068,0.085,0.009,-0.094,0.015,0.091,-0.085,-0.114,-0.15,-0.13
-0.05,-0.115,-0.065,0.083,0.008,-0.09,0.015,0.095,-0.085,-0.11,-0.15,-0.13
-0.046,-0.107,-0.061,0.076,0.008,-0.084,0.015,0.095,-0.081,-0.11,-0.15,-0.13
-0.045,-0.102,-0.057,0.074,0.006,-0.079,0.016,0.095,-0.08,-0.111,-0.147,-0.131
-0.043,-0.096,-0.053,0.07,0.005,-0.074,0.013,0.095,-0.078,-0.108,-0.144,-0.128
-0.04,-0.089,-0.049,0.064,0.005,-0.069,0.01,0.095,-0.075,-0.105,-0.145,-0.125
-0.04,-0.085,-0.045,0.063,0.003,-0.065,0.01,0.095,-0.075,-0.105,-0.145,-0.125
-0.04,-0.081,-0.041,0.06,0.0,-0.061,0.01,0.095,-0.071,-0.105,-0.145,-0.125
-0.04,-0.08,-0.04,0.06,0.0,-0.06,0.01,0.098,-0.067,-0.105,-0.146,-0.126
-0.04,-0.08,-0.041,0.06,0.0,-0.06,0.01,0.1,-0.063,-0.103,-0.143,-0.123
-0.041,-0.08,-0.039,0.06,-0.001,-0.059,0.01,0.101,-0.06,-0.1,-0.14,-0.12
-0.045,-0.08,-0.035,0.063,-0.005,-0.057,0.01,0.105,-0.06,-0.1,-0.14,-0.12
-0.045,-0.08,-0.035,0.063,-0.005,-0.057,0.01,0.105,-0.056,-0.1,-0.14,-0.12
-0.045,-0.08,-0.035,0.063,-0.005,-0.057,0.01,0.108,-0.051,-0.097,-0.14,-0.121
-0.045,-0.08,-0.035,0.063,-0.005,-0.057,0.01,0.11,-0.05,-0.095,-0.14,-0.118
-0.046,-0.08,-0.034,0.063,-0.006,-0.057,0.01,0.111,-0.049,-0.095,-0.14,-0.115
-0.05,-0.08,-0.03,0.065,-0.01,-0.055,0.01,0.12,-0.045,-0.095,-0.14,-0.115
-0.05,-0.08,-0.03,0.065,-0.01,-0.055,0.01,0.124,-0.041,-0.095,-0.136,-0.115
-0.05,-0.08,-0.03,0.065,-0.01,-0.055,0.007,0.128,-0.04,-0.092,-0.131,-0.115
-0.05,-0.08,-0.03,0.065,-0.01,-0.055,0.004,0.132,-0.039,-0.089,-0.13,-0.115
-0.051,-0.08,-0.029,0.066,-0.011,-0.055,0.005,0.136,-0.034,-0.09,-0.129,-0.114
-0.055,-0.08,-0.025,0.068,-0.015,-0.052,0.005,0.14,-0.03,-0.09,-0.125,-0.11
-0.055,-0.08,-0.025,0.068,-0.015,-0.052,0.005,0.144,-0.03,-0.09,-0.125,-0.11
-0.055,-0.081,-0.026,0.069,-0.015,-0.053,0.005,0.148,-0.028,-0.087,-0.123,-0.11
-0.054,-0.077,-0.023,0.065,-0.015,-0.05,0.005,0.151,-0.022,-0.084,-0.117,-0.11
-0.049,-0.068,-0.02,0.059,-0.015,-0.044,0.005,0.149,-0.02,-0.085,-0.115,-0.109
-0.045,-0.065,-0.02,0.055,-0.012,-0.042,0.005,0.15,-0.02,-0.085,-0.115,-0.105
-0.042,-0.061,-0.02,0.052,-0.011,-0.041,0.005,0.171,-0.012,-0.081,-0.111,-0.105
-0.033,-0.054,-0.021,0.044,-0.007,-0.037,0.005,0.18,-0.007,-0.079,-0.11,-0.105
-0.029,-0.047,-0.018,0.038,-0.005,-0.033,0.005,0.181,-0.001,-0.081,-0.109,-0.105
-0.03,-0.044,-0.015,0.038,-0.007,-0.029,0.005,0.186,0.006,-0.078,-0.104,-0.105
-0.025,-0.04,-0.015,0.033,-0.005,-0.027,0.005,0.19,0.01,-0.07,-0.1,-0.105
-0.013,-0.028,-0.015,0.021,0.001,-0.021,0.005,0.189,0.018,-0.066,-0.1,-0.101
-0.003,-0.018,-0.016,0.011,0.007,-0.017,0.005,0.196,0.023,-0.062,-0.097,-0.096
0.0,-0.011,-0.011,0.006,0.006,-0.011,0.005,0.203,0.027,-0.058,-0.095,-0.095
0.001,-0.003,-0.004,0.002,0.003,-0.003,0.005,0.206,0.031,-0.054,-0.095,-0.094
0.005,0.005,0.0,-0.005,0.002,0.002,0.005,0.21,0.035,-0.05,-0.09,-0.09
0.005,0.013,0.008,-0.009,-0.002,0.01,0.005,0.218,0.04,-0.046,-0.085,-0.085
0.006,0.019,0.013,-0.013,-0.004,0.016,0.005,0.223,0.038,-0.039,-0.085,-0.086
0.016,0.035,0.019,-0.026,-0.001,0.027,0.005,0.229,0.047,-0.03,-0.083,-0.081
0.026,0.053,0.027,-0.04,0.0,0.039,0.005,0.236,0.063,-0.024,-0.08,-0.074
0.025,0.055,0.03,-0.04,-0.003,0.042,0.005,0.24,0.07,-0.02,-0.08,-0.07
0.027,0.054,0.027,-0.041,-0.001,0.041,0.005,0.26,0.083,-0.012,-0.068,-0.062
0.042,0.058,0.016,-0.05,0.013,0.037,0.005,0.273,0.088,-0.003,-0.058,-0.057
0.023,0.06,0.037,-0.042,-0.007,0.048,0.005,0.276,0.095,0.002,-0.051,-0.051
-0.007,0.061,0.068,-0.027,-0.038,0.064,0.005,0.282,0.107,0.007,-0.043,-0.044
0.005,0.065,0.06,-0.035,-0.028,0.062,0.005,0.295,0.115,0.02,-0.035,-0.04
0.004,0.063,0.059,-0.034,-0.028,0.061,0.005,0.306,0.126,0.032,-0.027,-0.032
0.017,0.078,0.06,-0.048,-0.022,0.069,0.005,0.323,0.143,0.044,-0.02,-0.024
0.025,0.085,0.06,-0.055,-0.018,0.072,0.005,0.334,0.155,0.055,-0.009,-0.016
0.019,0.079,0.06,-0.049,-0.02,0.07,0.005,0.335,0.161,0.062,0.002,-0.008
0.02,0.08,0.06,-0.05,-0.02,0.07,0.005,0.34,0.17,0.07,0.01,0.0
0.016,0.076,0.06,-0.046,-0.022,0.068,0.005,0.356,0.19,0.082,0.022,0.008
0.012,0.072,0.06,-0.042,-0.025,0.066,0.005,0.37,0.205,0.094,0.031,0.016
0.024,0.084,0.06,-0.054,-0.018,0.071,0.005,0.38,0.216,0.107,0.041,0.024
0.044,0.105,0.06,-0.074,-0.008,0.082,0.005,0.386,0.228,0.124,0.052,0.032
0.065,0.125,0.06,-0.095,0.002,0.092,0.005,0.39,0.24,0.14,0.06,0.04
0.101,0.16,0.058,-0.13,0.021,0.108,0.005,0.395,0.257,0.152,0.072,0.045
0.093,0.165,0.072,-0.129,0.01,0.119,0.006,0.394,0.265,0.165,0.081,0.046
0.075,0.157,0.083,-0.116,-0.004,0.12,0.003,0.398,0.279,0.173,0.089,0.058
0.074,0.153,0.079,-0.114,-0.003,0.115,0.0,0.407,0.29,0.175,0.096,0.072
0.075,0.155,0.08,-0.115,-0.003,0.117,0.0,0.41,0.29,0.18,0.1,0.075
0.095,0.191,0.096,-0.143,0.0,0.143,0.0,0.414,0.314,0.201,0.111,0.087
0.108,0.218,0.11,-0.164,-0.001,0.164,0.0,0.418,0.326,0.208,0.128,0.097
0.111,0.23,0.119,-0.171,-0.004,0.174,0.0,0.422,0.325,0.217,0.139,0.104
0.117,0.236,0.119,-0.176,-0.001,0.177,0.0,0.425,0.333,0.232,0.148,0.112
0.12,0.24,0.12,-0.18,0.0,0.18,0.0,0.425,0.345,0.24,0.16,0.12
0.108,0.252,0.145,-0.18,-0.019,0.198,0.0,0.429,0.353,0.261,0.164,0.12
0.103,0.259,0.156,-0.181,-0.026,0.207,-0.003,0.43,0.359,0.27,0.167,0.12
0.107,0.262,0.155,-0.185,-0.024,0.208,-0.006,0.432,0.358,0.27,0.174,0.121
0.111,0.266,0.155,-0.189,-0.022,0.211,-0.005,0.436,0.364,0.27,0.182,0.128
0.115,0.27,0.155,-0.193,-0.02,0.212,-0.005,0.435,0.385,0.275,0.19,0.14
0.113,0.272,0.159,-0.193,-0.024,0.215,-0.005,0.431,0.391,0.291,0.194,0.148
0.131,0.291,0.16,-0.211,-0.015,0.226,-0.005,0.43,0.388,0.302,0.2,0.157
0.14,0.301,0.16,-0.22,-0.01,0.23,-0.005,0.428,0.396,0.307,0.211,0.161
0.135,0.294,0.159,-0.214,-0.013,0.226,-0.005,0.424,0.406,0.312,0.222,0.17
0.14,0.295,0.155,-0.218,-0.008,0.225,-0.005,0.425,0.405,0.32,0.23,0.19
0.14,0.295,0.155,-0.218,-0.008,0.225,-0.009,0.426,0.404,0.325,0.235,0.187
0.14,0.295,0.155,-0.218,-0.008,0.225,-0.01,0.422,0.409,0.322,0.232,0.181
0.14,0.295,0.155,-0.218,-0.008,0.225,-0.01,0.42,0.409,0.319,0.229,0.178
0.14,0.295,0.155,-0.218,-0.008,0.225,-0.01,0.419,0.404,0.32,0.23,0.174
0.14,0.295,0.155,-0.218,-0.008,0.225,-0.01,0.415,0.4,0.32,0.23,0.17
0.14,0.295,0.155,-0.218,-0.008,0.225,-0.01,0.414,0.4,0.32,0.23,0.17
0.137,0.292,0.155,-0.215,-0.009,0.223,-0.01,0.417,0.398,0.32,0.23,0.167
0.135,0.289,0.155,-0.212,-0.01,0.222,-0.01,0.408,0.392,0.321,0.231,0.163
0.135,0.29,0.155,-0.213,-0.01,0.222,-0.01,0.391,0.39,0.318,0.228,0.159
0.135,0.29,0.155,-0.213,-0.01,0.222,-0.01,0.38,0.39,0.305,0.215,0.155
0.136,0.29,0.154,-0.213,-0.009,0.222,-0.006,0.368,0.375,0.293,0.207,0.15
0.13,0.29,0.16,-0.211,-0.015,0.225,-0.005,0.356,0.358,0.28,0.196,0.151
0.121,0.29,0.169,-0.205,-0.024,0.229,-0.005,0.344,0.342,0.272,0.186,0.145
0.123,0.291,0.168,-0.207,-0.023,0.229,-0.005,0.332,0.326,0.261,0.177,0.133
0.135,0.29,0.155,-0.213,-0.01,0.222,-0.005,0.32,0.31,0.24,0.16,0.125
0.131,0.278,0.147,-0.205,-0.008,0.213,-0.005,0.308,0.297,0.224,0.144,0.113
0.131,0.267,0.136,-0.199,-0.003,0.201,-0.005,0.299,0.29,0.203,0.128,0.104
0.124,0.249,0.126,-0.186,-0.001,0.188,-0.005,0.289,0.275,0.179,0.114,0.094
0.106,0.223,0.117,-0.165,-0.006,0.17,-0.005,0.277,0.249,0.161,0.101,0.083
0.095,0.2,0.105,-0.148,-0.005,0.152,-0.005,0.265,0.225,0.145,0.085,0.075
0.084,0.18,0.097,-0.133,-0.007,0.138,-0.005,0.241,0.201,0.129,0.069,0.056
0.067,0.158,0.091,-0.113,-0.012,0.125,-0.005,0.219,0.176,0.112,0.052,0.034
0.056,0.146,0.09,-0.101,-0.017,0.118,-0.005,0.201,0.156,0.099,0.039,0.018
0.055,0.144,0.089,-0.1,-0.017,0.116,-0.004,0.187,0.142,0.086,0.026,0.007
0.055,0.14,0.085,-0.098,-0.015,0.112,0.0,0.175,0.13,0.065,0.01,-0.005
0.051,0.136,0.085,-0.094,-0.018,0.111,0.0,0.159,0.106,0.049,-0.002,-0.013
0.05,0.131,0.082,-0.091,-0.016,0.107,0.0,0.146,0.084,0.033,-0.017,-0.023
0.05,0.13,0.08,-0.09,-0.015,0.105,0.0,0.134,0.066,0.019,-0.033,-0.037
0.05,0.129,0.079,-0.09,-0.015,0.104,0.0,0.122,0.052,0.007,-0.041,-0.047
0.05,0.125,0.075,-0.088,-0.013,0.1,0.0,0.11,0.04,-0.005,-0.045,-0.055
0.046,0.121,0.075,-0.084,-0.014,0.097,0.0,0.098,0.028,-0.017,-0.065,-0.072
0.042,0.117,0.076,-0.08,-0.017,0.096,0.0,0.086,0.016,-0.028,-0.077,-0.078
0.039,0.112,0.073,-0.076,-0.017,0.093,0.0,0.076,0.004,-0.045,-0.086,-0.085
0.041,0.11,0.07,-0.075,-0.015,0.09,0.0,0.068,-0.007,-0.063,-0.096,-0.097
0.04,0.11,0.07,-0.075,-0.015,0.09,0.0,0.06,-0.015,-0.07,-0.1,-0.105
0.028,0.094,0.066,-0.062,-0.019,0.08,0.0,0.052,-0.023,-0.074,-0.116,-0.117
0.016,0.081,0.065,-0.049,-0.025,0.073,-0.001,0.044,-0.031,-0.081,-0.125,-0.124
0.004,0.067,0.063,-0.036,-0.03,0.065,0.002,0.036,-0.039,-0.088,-0.125,-0.125
-0.008,0.051,0.06,-0.021,-0.034,0.055,0.005,0.028,-0.047,-0.091,-0.126,-0.125
-0.02,0.04,0.06,-0.01,-0.04,0.05,0.005,0.02,-0.055,-0.095,-0.13,-0.125
-0.024,0.032,0.056,-0.004,-0.04,0.043,0.005,0.016,-0.059,-0.099,-0.13,-0.125
-0.028,0.027,0.054,0.0,-0.041,0.04,0.005,0.015,-0.062,-0.103,-0.133,-0.125
-0.032,0.023,0.056,0.004,-0.044,0.039,0.005,0.016,-0.069,-0.106,-0.135,-0.124
-0.035,0.019,0.054,0.008,-0.045,0.036,0.005,0.014,-0.076,-0.104,-0.136,-0.126
-0.035,0.015,0.05,0.01,-0.043,0.032,0.005,0.01,-0.08,-0.1,-0.145,-0.135
-0.039,0.011,0.05,0.014,-0.044,0.03,0.005,0.01,-0.084,-0.1,-0.15,-0.14
-0.044,0.007,0.051,0.018,-0.048,0.029,0.008,0.011,-0.086,-0.1,-0.147,-0.137
-0.045,0.003,0.048,0.021,-0.047,0.025,0.011,0.008,-0.084,-0.1,-0.144,-0.134
-0.055,0.0,0.054,0.027,-0.054,0.027,0.01,0.005,-0.086,-0.1,-0.145,-0.135
-0.075,0.0,0.075,0.037,-0.075,0.037,0.01,0.005,-0.09,-0.1,-0.145,-0.135
-0.072,0.0,0.072,0.036,-0.072,0.036,0.01,0.005,-0.09,-0.1,-0.145,-0.135
-0.069,0.001,0.07,0.034,-0.069,0.035,0.01,0.002,-0.09,-0.1,-0.146,-0.136
-0.07,-0.002,0.068,0.036,-0.069,0.033,0.01,-0.001,-0.088,-0.1,-0.143,-0.133
-0.07,-0.005,0.065,0.037,-0.067,0.03,0.01,0.0,-0.085,-0.1,-0.14,-0.13
-0.07,-0.005,0.065,0.037,-0.067,0.03,0.01,0.0,-0.085,-0.1,-0.14,-0.13
-0.066,-0.005,0.061,0.035,-0.063,0.027,0.014,-0.004,-0.085,-0.1,-0.14,-0.13
-0.065,-0.004,0.06,0.035,-0.062,0.027,0.015,-0.006,-0.082,-0.101,-0.14,-0.13
-0.065,-0.007,0.058,0.036,-0.061,0.025,0.015,-0.004,-0.079,-0.098,-0.14,-0.13
-0.065,-0.01,0.054,0.037,-0.06,0.022,0.015,-0.006,-0.08,-0.095,-0.14,-0.13
-0.065,-0.01,0.055,0.037,-0.06,0.022,0.015,-0.01,-0.08,-0.095,-0.14,-0.13
-0.065,-0.01,0.056,0.037,-0.06,0.022,0.015,-0.01,-0.076,-0.095,-0.136,-0.126
-0.062,-0.01,0.052,0.036,-0.057,0.021,0.015,-0.009,-0.074,-0.095,-0.135,-0.125
-0.059,-0.01,0.05,0.035,-0.055,0.02,0.015,-0.012,-0.076,-0.095,-0.135,-0.125
-0.06,-0.011,0.049,0.035,-0.055,0.019,0.015,-0.015,-0.074,-0.095,-0.135,-0.125
-0.06,-0.015,0.045,0.037,-0.052,0.015,0.015,-0.015,-0.07,-0.095,-0.135,-0.125
-0.06,-0.015,0.045,0.037,-0.052,0.015,0.015,-0.015,-0.07,-0.095,-0.135,-0.125
-0.057,-0.015,0.042,0.036,-0.049,0.013,0.015,-0.015,-0.071,-0.095,-0.132,-0.122
-0.054,-0.015,0.04,0.035,-0.047,0.012,0.015,-0.014,-0.068,-0.095,-0.129,-0.119
-0.055,-0.016,0.039,0.035,-0.047,0.011,0.015,-0.009,-0.065,-0.095,-0.13,-0.12
-0.055,-0.02,0.035,0.037,-0.045,0.007,0.015,-0.005,-0.065,-0.095,-0.13,-0.12
-0.055,-0.02,0.035,0.037,-0.045,0.007,0.015,-0.005,-0.065,-0.095,-0.13,-0.12
-0.056,-0.02,0.036,0.037,-0.046,0.008,0.015,-0.003,-0.062,-0.098,-0.13,-0.12
-0.052,-0.02,0.031,0.036,-0.042,0.005,0.017,0.003,-0.059,-0.101,-0.13,-0.121
-0.043,-0.019,0.024,0.031,-0.033,0.002,0.021,0.005,-0.06,-0.1,-0.129,-0.119
-0.04,-0.02,0.02,0.03,-0.03,0.0,0.025,0.005,-0.06,-0.1,-0.125,-0.11
-0.048,-0.036,0.012,0.042,-0.03,-0.012,0.03,0.013,-0.056,-0.1,-0.125,-0.106
-0.052,-0.045,0.007,0.048,-0.029,-0.019,0.029,0.019,-0.055,-0.1,-0.125,-0.102
-0.047,-0.046,0.001,0.047,-0.024,-0.022,0.033,0.022,-0.055,-0.1,-0.125,-0.098
-0.046,-0.052,-0.006,0.049,-0.02,-0.029,0.042,0.026,-0.055,-0.1,-0.125,-0.094
-0.05,-0.06,-0.01,0.055,-0.02,-0.035,0.045,0.03,-0.055,-0.1,-0.125,-0.09
-0.049,-0.064,-0.015,0.057,-0.017,-0.04,0.045,0.034,-0.055,-0.1,-0.121,-0.085
-0.056,-0.068,-0.012,0.063,-0.022,-0.04,0.048,0.038,-0.055,-0.1,-0.12,-0.088
-0.044,-0.07,-0.027,0.058,-0.009,-0.048,0.05,0.042,-0.055,-0.1,-0.12,-0.091
-0.023,-0.07,-0.047,0.047,0.012,-0.058,0.051,0.045,-0.055,-0.1,-0.12,-0.09
-0.03,-0.07,-0.04,0.05,0.005,-0.055,0.055,0.045,-0.055,-0.1,-0.12,-0.09
-0.034,-0.069,-0.036,0.052,0.001,-0.052,0.056,0.045,-0.055,-0.1,-0.12,-0.09
-0.043,-0.076,-0.032,0.06,-0.006,-0.054,0.052,0.045,-0.055,-0.1,-0.121,-0.09
-0.055,-0.083,-0.028,0.069,-0.013,-0.056,0.05,0.045,-0.055,-0.1,-0.118,-0.09
-0.061,-0.085,-0.024,0.074,-0.018,-0.055,0.05,0.045,-0.055,-0.1,-0.115,-0.09
-0.065,-0.085,-0.02,0.075,-0.022,-0.052,0.05,0.045,-0.055,-0.1,-0.115,-0.09
-0.07,-0.085,-0.015,0.078,-0.027,-0.05,0.05,0.045,-0.055,-0.1,-0.115,-0.09
-0.068,-0.085,-0.017,0.077,-0.025,-0.051,0.05,0.045,-0.055,-0.1,-0.115,-0.09
-0.062,-0.085,-0.023,0.074,-0.019,-0.054,0.05,0.045,-0.055,-0.1,-0.115,-0.09
-0.061,-0.085,-0.024,0.073,-0.018,-0.055,0.05,0.045,-0.055,-0.1,-0.114,-0.091
-0.065,-0.085,-0.02,0.075,-0.022,-0.052,0.05,0.045,-0.055,-0.1,-0.11,-0.095
-0.065,-0.085,-0.02,0.075,-0.022,-0.052,0.05,0.045,-0.055,-0.1,-0.11,-0.099
-0.067,-0.085,-0.018,0.076,-0.024,-0.051,0.05,0.045,-0.055,-0.1,-0.11,-0.1
-0.073,-0.085,-0.012,0.08,-0.03,-0.048,0.05,0.045,-0.055,-0.1,-0.11,-0.1
-0.065,-0.085,-0.02,0.075,-0.022,-0.053,0.05,0.045,-0.055,-0.1,-0.11,-0.1
-0.04,-0.085,-0.045,0.063,0.003,-0.065,0.05,0.045,-0.055,-0.1,-0.11,-0.1
-0.043,-0.085,-0.042,0.064,0.0,-0.063,0.046,0.049,-0.055,-0.1,-0.11,-0.1
-0.046,-0.085,-0.039,0.066,-0.003,-0.061,0.045,0.05,-0.055,-0.1,-0.113,-0.1
-0.044,-0.085,-0.041,0.065,-0.001,-0.062,0.045,0.05,-0.056,-0.1,-0.116,-0.1
-0.046,-0.085,-0.039,0.066,-0.003,-0.062,0.045,0.05,-0.061,-0.1,-0.115,-0.1
-0.05,-0.085,-0.035,0.068,-0.007,-0.06,0.045,0.05,-0.065,-0.1,-0.115,-0.1
-0.05,-0.085,-0.035,0.068,-0.007,-0.06,0.045,0.05,-0.065,-0.1,-0.115,-0.1
-0.051,-0.085,-0.034,0.068,-0.008,-0.059,0.045,0.05,-0.065,-0.1,-0.114,-0.1
-0.046,-0.085,-0.039,0.066,-0.003,-0.062,0.045,0.052,-0.065,-0.1,-0.117,-0.1
-0.039,-0.085,-0.046,0.063,0.004,-0.065,0.045,0.056,-0.064,-0.1,-0.12,-0.1
-0.035,-0.085,-0.05,0.06,0.008,-0.067,0.045,0.06,-0.065,-0.1,-0.12,-0.1
-0.014,-0.085,-0.071,0.05,0.029,-0.078,0.045,0.064,-0.081,-0.1,-0.12,-0.1
-0.011,-0.085,-0.074,0.048,0.032,-0.079,0.045,0.066,-0.09,-0.1,-0.12,-0.1
-0.016,-0.085,-0.069,0.051,0.027,-0.076,0.045,0.063,-0.09,-0.1,-0.12,-0.099
-0.015,-0.085,-0.07,0.05,0.028,-0.077,0.045,0.06,-0.09,-0.1,-0.121,-0.101
-0.015,-0.085,-0.07,0.05,0.028,-0.077,0.045,0.06,-0.09,-0.1,-0.125,-0.11
-0.019,-0.085,-0.066,0.053,0.024,-0.075,0.045,0.06,-0.09,-0.1,-0.125,-0.115
-0.02,-0.085,-0.065,0.053,0.023,-0.075,0.045,0.057,-0.09,-0.1,-0.125,-0.112
-0.02,-0.085,-0.065,0.053,0.023,-0.075,0.045,0.054,-0.09,-0.1,-0.125,-0.109
-0.019,-0.085,-0.066,0.052,0.024,-0.075,0.045,0.055,-0.09,-0.1,-0.125,-0.11
-0.015,-0.085,-0.07,0.05,0.028,-0.077,0.045,0.055,-0.09,-0.1,-0.125,-0.11
-0.024,-0.098,-0.074,0.061,0.026,-0.086,0.045,0.051,-0.09,-0.1,-0.125,-0.11
-0.056,-0.132,-0.076,0.094,0.011,-0.104,0.045,0.049,-0.09,-0.1,-0.125,-0.11
-0.059,-0.147,-0.089,0.103,0.015,-0.117,0.045,0.051,-0.09,-0.1,-0.125,-0.11
-0.037,-0.138,-0.101,0.088,0.032,-0.12,0.045,0.049,-0.09,-0.1,-0.125,-0.11
-0.04,-0.135,-0.095,0.088,0.028,-0.115,0.045,0.045,-0.09,-0.1,-0.125,-0.11
-0.036,-0.131,-0.094,0.084,0.029,-0.112,0.045,0.045,-0.09,-0.1,-0.125,-0.11
-0.034,-0.13,-0.096,0.083,0.031,-0.112,0.045,0.046,-0.09,-0.103,-0.125,-0.11
-0.036,-0.129,-0.093,0.082,0.029,-0.11,0.045,0.043,-0.09,-0.106,-0.125,-0.11
-0.034,-0.124,-0.09,0.079,0.028,-0.106,0.045,0.04,-0.091,-0.105,-0.125,-0.11
-0.03,-0.12,-0.09,0.075,0.03,-0.105,0.045,0.04,-0.095,-0.105,-0.125,-0.11
-0.03,-0.12,-0.09,0.075,0.03,-0.105,0.045,0.04,-0.095,-0.109,-0.125,-0.11
-0.027,-0.117,-0.09,0.072,0.032,-0.104,0.045,0.037,-0.095,-0.111,-0.125,-0.11
-0.025,-0.113,-0.088,0.069,0.032,-0.1,0.045,0.034,-0.095,-0.109,-0.125,-0.11
-0.024,-0.109,-0.085,0.067,0.03,-0.096,0.045,0.035,-0.095,-0.111,-0.125,-0.11
-0.025,-0.11,-0.085,0.068,0.03,-0.097,0.045,0.035,-0.095,-0.115,-0.125,-0.11
-0.045,-0.13,-0.085,0.088,0.021,-0.108,0.045,0.031,-0.095,-0.115,-0.125,-0.11
-0.058,-0.14,-0.082,0.099,0.012,-0.111,0.045,0.027,-0.094,-0.115,-0.125,-0.11
-0.06,-0.14,-0.079,0.1,0.009,-0.11,0.045,0.023,-0.097,-0.115,-0.125,-0.11
-0.06,-0.14,-0.08,0.1,0.01,-0.11,0.045,0.019,-0.1,-0.115,-0.125,-0.11
-0.06,-0.14,-0.08,0.1,0.01,-0.11,0.045,0.015,-0.1,-0.115,-0.125,-0.11
-0.06,-0.14,-0.08,0.1,0.01,-0.11,0.045,0.011,-0.1,-0.115,-0.125,-0.11
-0.057,-0.14,-0.083,0.099,0.013,-0.111,0.045,0.007,-0.1,-0.115,-0.128,-0.11
-0.054,-0.14,-0.086,0.098,0.016,-0.112,0.045,0.003,-0.1,-0.115,-0.13,-0.11
-0.055,-0.14,-0.085,0.098,0.015,-0.112,0.045,0.0,-0.1,-0.115,-0.131,-0.111
-0.055,-0.14,-0.085,0.098,0.015,-0.112,0.045,0.0,-0.1,-0.115,-0.135,-0.115
-0.055,-0.14,-0.085,0.098,0.015,-0.112,0.045,0.0,-0.1,-0.115,-0.135,-0.115
-0.055,-0.14,-0.085,0.098,0.015,-0.112,0.045,0.001,-0.097,-0.115,-0.138,-0.115
-0.055,-0.14,-0.085,0.098,0.015,-0.112,0.045,-0.002,-0.094,-0.115,-0.141,-0.115
-0.055,-0.14,-0.085,0.098,0.015,-0.112,0.045,-0.005,-0.095,-0.115,-0.139,-0.116
-0.055,-0.14,-0.085,0.098,0.015,-0.112,0.045,-0.005,-0.095,-0.115,-0.135,-0.12
-0.055,-0.14,-0.085,0.098,0.015,-0.112,0.045,-0.005,-0.095,-0.115,-0.135,-0.12
-0.055,-0.14,-0.085,0.098,0.015,-0.112,0.045,-0.004,-0.095,-0.115,-0.135,-0.12
-0.055,-0.14,-0.085,0.098,0.015,-0.112,0.045,-0.007,-0.095,-0.115,-0.135,-0.12
-0.055,-0.14,-0.085,0.098,0.015,-0.112,0.045,-0.01,-0.095,-0.115,-0.135,-0.12
-0.055,-0.14,-0.085,0.098,0.015,-0.112,0.045,-0.01,-0.095,-0.115,-0.135,-0.12
-0.051,-0.14,-0.089,0.095,0.019,-0.115,0.045,-0.01,-0.095,-0.115,-0.135,-0.124
-0.05,-0.14,-0.09,0.095,0.02,-0.115,0.045,-0.01,-0.096,-0.112,-0.135,-0.125
-0.05,-0.14,-0.09,0.095,0.02,-0.115,0.045,-0.01,-0.093,-0.109,-0.135,-0.125
-0.05,-0.14,-0.09,0.095,0.02,-0.115,0.045,-0.011,-0.09,-0.11,-0.135,-0.125
-0.05,-0.14,-0.09,0.095,0.02,-0.115,0.045,-0.015,-0.09,-0.11,-0.135,-0.125
-0.05,-0.14,-0.09,0.095,0.02,-0.115,0.045,-0.015,-0.09,-0.11,-0.135,-0.125
-0.05,-0.14,-0.09,0.095,0.02,-0.115,0.045,-0.015,-0.09,-0.11,-0.136,-0.122
-0.05,-0.14,-0.09,0.095,0.02,-0.115,0.045,-0.015,-0.09,-0.11,-0.133,-0.119
-0.051,-0.141,-0.09,0.096,0.02,-0.115,0.045,-0.016,-0.09,-0.11,-0.13,-0.12
-0.055,-0.145,-0.09,0.1,0.018,-0.117,0.045,-0.02,-0.09,-0.11,-0.13,-0.12
-0.055,-0.145,-0.09,0.1,0.018,-0.117,0.045,-0.02,-0.09,-0.11,-0.13,-0.12
-0.055,-0.144,-0.089,0.1,0.018,-0.116,0.045,-0.02,-0.09,-0.11,-0.13,-0.12
-0.055,-0.147,-0.092,0.101,0.019,-0.119,0.045,-0.02,-0.089,-0.109,-0.13,-0.12
-0.065,-0.15,-0.086,0.108,0.011,-0.118,0.044,-0.02,-0.092,-0.112,-0.13,-0.12
-0.075,-0.15,-0.075,0.113,0.0,-0.112,0.04,-0.02,-0.105,-0.12,-0.13,-0.12
-0.043,-0.15,-0.108,0.097,0.033,-0.129,0.04,-0.02,-0.11,-0.12,-0.13,-0.12
-0.028,-0.147,-0.119,0.088,0.046,-0.133,0.04,-0.02,-0.11,-0.12,-0.13,-0.12
-0.031,-0.144,-0.114,0.088,0.042,-0.129,0.04,-0.02,-0.11,-0.12,-0.13,-0.12
-0.03,-0.145,-0.115,0.088,0.043,-0.13,0.039,-0.02,-0.11,-0.12,-0.13,-0.12
-0.03,-0.145,-0.115,0.088,0.043,-0.13,0.035,-0.02,-0.11,-0.12,-0.13,-0.12
-0.03,-0.145,-0.115,0.088,0.043,-0.13,0.035,-0.02,-0.11,-0.12,-0.13,-0.116
-0.027,-0.142,-0.114,0.085,0.044,-0.128,0.035,-0.02,-0.11,-0.12,-0.133,-0.115
-0.023,-0.139,-0.117,0.082,0.047,-0.127,0.035,-0.02,-0.11,-0.12,-0.136,-0.115
-0.028,-0.14,-0.112,0.085,0.042,-0.126,0.034,-0.02,-0.11,-0.12,-0.135,-0.115
-0.035,-0.14,-0.105,0.088,0.035,-0.122,0.03,-0.02,-0.11,-0.12,-0.135,-0.115
-0.01,-0.14,-0.13,0.076,0.06,-0.135,0.03,-0.02,-0.11,-0.12,-0.135,-0.115
-0.004,-0.137,-0.133,0.071,0.064,-0.135,0.03,-0.02,-0.11,-0.12,-0.135,-0.115
-0.015,-0.134,-0.119,0.075,0.053,-0.127,0.03,-0.02,-0.11,-0.12,-0.135,-0.115
-0.021,-0.135,-0.114,0.079,0.047,-0.124,0.03,-0.02,-0.11,-0.12,-0.135,-0.115
-0.025,-0.135,-0.11,0.08,0.043,-0.122,0.03,-0.02,-0.11,-0.12,-0.135,-0.115
-0.032,-0.135,-0.102,0.084,0.035,-0.118,0.026,-0.02,-0.11,-0.12,-0.135,-0.115
-0.043,-0.136,-0.093,0.089,0.026,-0.114,0.025,-0.02,-0.11,-0.12,-0.135,-0.115
-0.044,-0.133,-0.089,0.089,0.023,-0.111,0.025,-0.02,-0.11,-0.12,-0.135,-0.115
-0.048,-0.13,-0.081,0.09,0.016,-0.105,0.025,-0.02,-0.11,-0.12,-0.135,-0.116
-0.055,-0.13,-0.075,0.093,0.01,-0.102,0.025,-0.02,-0.11,-0.12,-0.135,-0.12
-0.017,-0.13,-0.113,0.074,0.048,-0.121,0.021,-0.02,-0.11,-0.12,-0.139,-0.12
-0.012,-0.131,-0.118,0.071,0.053,-0.124,0.02,-0.019,-0.11,-0.12,-0.14,-0.12
-0.022,-0.128,-0.106,0.075,0.043,-0.117,0.02,-0.023,-0.11,-0.12,-0.14,-0.12
-0.021,-0.125,-0.104,0.073,0.042,-0.114,0.02,-0.032,-0.11,-0.12,-0.14,-0.12
-0.03,-0.125,-0.095,0.078,0.033,-0.11,0.02,-0.035,-0.11,-0.12,-0.14,-0.12
-0.034,-0.125,-0.091,0.08,0.029,-0.108,0.02,-0.035,-0.11,-0.12,-0.14,-0.12
-0.041,-0.125,-0.085,0.083,0.023,-0.104,0.023,-0.035,-0.111,-0.119,-0.14,-0.12
-0.049,-0.125,-0.076,0.087,0.014,-0.1,0.026,-0.035,-0.108,-0.122,-0.14,-0.12
-0.049,-0.126,-0.077,0.088,0.015,-0.101,0.025,-0.035,-0.105,-0.125,-0.14,-0.12
-0.04,-0.13,-0.09,0.085,0.025,-0.11,0.025,-0.035,-0.105,-0.125,-0.14,-0.12
-0.039,-0.134,-0.095,0.087,0.028,-0.115,0.025,-0.035,-0.105,-0.125,-0.14,-0.12
-0.044,-0.138,-0.094,0.092,0.026,-0.116,0.024,-0.035,-0.105,-0.125,-0.14,-0.12
-0.043,-0.14,-0.097,0.092,0.027,-0.118,0.027,-0.035,-0.105,-0.125,-0.14,-0.12
-0.04,-0.14,-0.1,0.09,0.03,-0.12,0.03,-0.035,-0.105,-0.125,-0.141,-0.12
-0.04,-0.14,-0.1,0.09,0.03,-0.12,0.03,-0.035,-0.105,-0.125,-0.145,-0.12
-0.036,-0.14,-0.104,0.089,0.034,-0.122,0.03,-0.035,-0.105,-0.125,-0.145,-0.12
-0.035,-0.14,-0.105,0.088,0.035,-0.122,0.03,-0.035,-0.105,-0.125,-0.145,-0.12
-0.05,-0.157,-0.107,0.104,0.029,-0.132,0.03,-0.035,-0.105,-0.125,-0.145,-0.12
-0.067,-0.177,-0.11,0.122,0.022,-0.143,0.029,-0.035,-0.105,-0.125,-0.145,-0.12
-0.06,-0.17,-0.11,0.115,0.025,-0.14,0.025,-0.035,-0.105,-0.125,-0.145,-0.12
-0.043,-0.17,-0.127,0.106,0.042,-0.148,0.025,-0.035,-0.105,-0.125,-0.145,-0.12
-0.038,-0.167,-0.129,0.103,0.046,-0.148,0.025,-0.035,-0.105,-0.125,-0.145,-0.12
-0.043,-0.165,-0.122,0.104,0.04,-0.143,0.025,-0.035,-0.105,-0.125,-0.145,-0.12
-0.045,-0.164,-0.119,0.105,0.037,-0.141,0.025,-0.035,-0.105,-0.125,-0.145,-0.12
-0.045,-0.16,-0.115,0.103,0.035,-0.137,0.025,-0.035,-0.105,-0.125,-0.145,-0.12
-0.049,-0.16,-0.111,0.105,0.031,-0.136,0.025,-0.035,-0.105,-0.125,-0.145,-0.12
-0.05,-0.157,-0.107,0.104,0.029,-0.132,0.025,-0.035,-0.105,-0.125,-0.145,-0.117
-0.051,-0.155,-0.104,0.103,0.027,-0.129,0.025,-0.035,-0.105,-0.125,-0.145,-0.114
-0.048,-0.154,-0.106,0.102,0.029,-0.13,0.025,-0.035,-0.105,-0.125,-0.145,-0.115
-0.04,-0.15,-0.11,0.095,0.035,-0.13,0.025,-0.035,-0.105,-0.125,-0.145,-0.115
-0.044,-0.15,-0.106,0.098,0.031,-0.128,0.025,-0.035,-0.105,-0.125,-0.145,-0.115
-0.042,-0.147,-0.104,0.095,0.031,-0.125,0.025,-0.034,-0.105,-0.125,-0.145,-0.115
-0.04,-0.145,-0.105,0.093,0.033,-0.125,0.025,-0.037,-0.105,-0.125,-0.145,-0.115
-0.039,-0.144,-0.105,0.092,0.033,-0.125,0.025,-0.04,-0.105,-0.125,-0.145,-0.115
-0.035,-0.14,-0.105,0.088,0.035,-0.122,0.025,-0.04,-0.105,-0.125,-0.145,-0.115
-0.035,-0.14,-0.105,0.088,0.035,-0.122,0.025,-0.04,-0.109,-0.121,-0.145,-0.115
-0.036,-0.141,-0.105,0.089,0.034,-0.122,0.025,-0.04,-0.11,-0.12,-0.145,-0.115
-0.033,-0.138,-0.105,0.086,0.037,-0.121,0.025,-0.04,-0.11,-0.12,-0.145,-0.115
-0.03,-0.135,-0.104,0.083,0.037,-0.119,0.025,-0.04,-0.11,-0.12,-0.145,-0.115
-0.035,-0.135,-0.1,0.085,0.033,-0.117,0.025,-0.04,-0.11,-0.12,-0.145,-0.115
-0.036,-0.135,-0.1,0.086,0.033,-0.117,0.025,-0.04,-0.11,-0.12,-0.145,-0.115
-0.032,-0.132,-0.1,0.082,0.034,-0.116,0.025,-0.04,-0.11,-0.12,-0.145,-0.115
-0.03,-0.129,-0.1,0.079,0.035,-0.115,0.025,-0.04,-0.11,-0.12,-0.145,-0.115
-0.03,-0.13,-0.1,0.08,0.035,-0.115,0.025,-0.04,-0.11,-0.119,-0.145,-0.115
-0.03,-0.13,-0.1,0.08,0.035,-0.115,0.025,-0.04,-0.11,-0.115,-0.145,-0.115
-0.03,-0.13,-0.1,0.08,0.035,-0.115,0.025,-0.04,-0.11,-0.115,-0.145,-0.115
-0.03,-0.131,-0.101,0.08,0.035,-0.115,0.022,-0.043,-0.11,-0.115,-0.145,-0.115
-0.046,-0.144,-0.098,0.095,0.027,-0.121,0.019,-0.046,-0.11,-0.115,-0.145,-0.115
-0.061,-0.156,-0.095,0.109,0.017,-0.125,0.02,-0.045,-0.11,-0.115,-0.145,-0.115
-0.055,-0.15,-0.095,0.103,0.02,-0.122,0.02,-0.045,-0.11,-0.115,-0.145,-0.115
-0.055,-0.15,-0.095,0.103,0.02,-0.122,0.02,-0.045,-0.11,-0.115,-0.145,-0.115
-0.052,-0.147,-0.095,0.1,0.022,-0.121,0.021,-0.045,-0.11,-0.116,-0.145,-0.115
-0.05,-0.145,-0.095,0.098,0.023,-0.12,0.018,-0.045,-0.11,-0.113,-0.145,-0.115
-0.049,-0.144,-0.095,0.097,0.023,-0.12,0.015,-0.045,-0.11,-0.11,-0.145,-0.114
-0.045,-0.14,-0.095,0.093,0.025,-0.117,0.015,-0.045,-0.11,-0.11,-0.145,-0.11
-0.045,-0.14,-0.095,0.093,0.025,-0.117,0.015,-0.045,-0.11,-0.11,-0.145,-0.11
-0.041,-0.137,-0.096,0.09,0.027,-0.116,0.015,-0.045,-0.111,-0.11,-0.145,-0.11
-0.042,-0.135,-0.093,0.089,0.026,-0.114,0.015,-0.045,-0.108,-0.11,-0.145,-0.11
-0.045,-0.134,-0.09,0.089,0.023,-0.111,0.015,-0.045,-0.105,-0.11,-0.145,-0.11
-0.04,-0.13,-0.09,0.085,0.025,-0.11,0.015,-0.045,-0.105,-0.11,-0.145,-0.11
-0.04,-0.13,-0.09,0.085,0.025,-0.11,0.011,-0.041,-0.105,-0.11,-0.145,-0.106
-0.04,-0.127,-0.087,0.084,0.024,-0.107,0.01,-0.04,-0.105,-0.109,-0.145,-0.105
-0.04,-0.125,-0.085,0.083,0.023,-0.105,0.01,-0.038,-0.105,-0.113,-0.145,-0.105
-0.039,-0.124,-0.085,0.082,0.023,-0.104,0.01,-0.035,-0.105,-0.122,-0.145,-0.105
-0.035,-0.12,-0.085,0.078,0.025,-0.102,0.01,-0.035,-0.105,-0.125,-0.145,-0.105
-0.031,-0.12,-0.089,0.076,0.029,-0.105,0.01,-0.031,-0.101,-0.121,-0.145,-0.105
-0.027,-0.117,-0.09,0.072,0.032,-0.103,0.007,-0.03,-0.1,-0.12,-0.145,-0.106
-0.025,-0.115,-0.09,0.07,0.033,-0.102,0.004,-0.028,-0.1,-0.118,-0.145,-0.103
-0.025,-0.115,-0.09,0.07,0.033,-0.102,0.005,-0.025,-0.1,-0.114,-0.144,-0.1
-0.02,-0.11,-0.09,0.065,0.035,-0.1,0.005,-0.025,-0.1,-0.115,-0.14,-0.1
-0.017,-0.107,-0.09,0.062,0.036,-0.099,0.005,-0.021,-0.1,-0.116,-0.135,-0.1
-0.037,-0.127,-0.09,0.082,0.027,-0.108,0.005,-0.02,-0.101,-0.112,-0.135,-0.1
-0.044,-0.134,-0.09,0.089,0.024,-0.111,0.005,-0.018,-0.098,-0.11,-0.133,-0.1
-0.033,-0.123,-0.09,0.078,0.029,-0.106,0.006,-0.015,-0.095,-0.109,-0.13,-0.099
-0.03,-0.12,-0.09,0.075,0.03,-0.105,0.01,-0.015,-0.095,-0.105,-0.13,-0.095
-0.022,-0.112,-0.09,0.067,0.034,-0.101,0.014,-0.011,-0.095,-0.105,-0.126,-0.095
-0.016,-0.107,-0.091,0.061,0.038,-0.099,0.018,-0.01,-0.095,-0.106,-0.121,-0.095
-0.016,-0.101,-0.085,0.059,0.035,-0.093,0.022,-0.008,-0.095,-0.103,-0.12,-0.095
-0.021,-0.094,-0.072,0.058,0.026,-0.083,0.026,-0.004,-0.095,-0.1,-0.119,-0.095
-0.025,-0.09,-0.065,0.058,0.02,-0.077,0.03,-0.005,-0.095,-0.1,-0.115,-0.095
-0.025,-0.082,-0.057,0.054,0.016,-0.069,0.033,-0.005,-0.091,-0.096,-0.115,-0.095
-0.025,-0.074,-0.049,0.05,0.012,-0.061,0.044,-0.002,-0.09,-0.094,-0.112,-0.092
-0.025,-0.066,-0.041,0.046,0.008,-0.053,0.055,0.0,-0.09,-0.096,-0.11,-0.089
-0.025,-0.058,-0.033,0.042,0.004,-0.045,0.061,0.0,-0.09,-0.094,-0.109,-0.09
-0.025,-0.05,-0.025,0.038,0.0,-0.037,0.065,0.0,-0.09,-0.09,-0.105,-0.09
-0.021,-0.042,-0.021,0.031,0.0,-0.031,0.069,0.0,-0.09,-0.09,-0.105,-0.09
-0.019,-0.035,-0.017,0.027,-0.001,-0.026,0.071,0.003,-0.09,-0.09,-0.102,-0.09
-0.022,-0.037,-0.015,0.031,-0.003,-0.026,0.068,0.006,-0.09,-0.092,-0.099,-0.09
-0.025,-0.039,-0.014,0.032,-0.005,-0.026,0.064,0.005,-0.09,-0.095,-0.101,-0.09
-0.02,-0.03,-0.01,0.025,-0.005,-0.02,0.06,0.005,-0.09,-0.095,-0.105,-0.09
-0.02,-0.026,-0.006,0.023,-0.007,-0.016,0.056,0.009,-0.09,-0.095,-0.105,-0.09
-0.019,-0.023,-0.004,0.021,-0.007,-0.013,0.052,0.01,-0.09,-0.095,-0.105,-0.09
-0.008,-0.016,-0.008,0.013,0.0,-0.011,0.048,0.01,-0.09,-0.095,-0.105,-0.09
0.01,-0.008,-0.018,0.0,0.014,-0.013,0.044,0.01,-0.089,-0.095,-0.105,-0.09
0.02,-0.005,-0.025,-0.007,0.023,-0.015,0.04,0.01,-0.085,-0.095,-0.105,-0.09
0.012,-0.005,-0.017,-0.003,0.015,-0.011,0.036,0.006,-0.085,-0.095,-0.105,-0.086
0.041,0.03,-0.011,-0.035,0.026,0.009,0.032,0.001,-0.085,-0.095,-0.108,-0.085
0.053,0.045,-0.009,-0.049,0.031,0.017,0.028,0.0,-0.085,-0.095,-0.111,-0.085
0.03,0.027,-0.003,-0.028,0.016,0.011,0.024,-0.001,-0.085,-0.096,-0.11,-0.085
0.015,0.02,0.005,-0.018,0.005,0.012,0.02,-0.005,-0.085,-0.1,-0.11,-0.085
-0.001,0.008,0.009,-0.004,-0.005,0.008,0.016,-0.005,-0.085,-0.1,-0.11,-0.085
-0.016,-0.001,0.015,0.008,-0.015,0.007,0.015,-0.007,-0.085,-0.1,-0.11,-0.085
-0.022,-0.011,0.011,0.016,-0.016,0.0,0.013,-0.013,-0.085,-0.1,-0.11,-0.085
-0.019,-0.022,-0.004,0.021,-0.008,-0.013,0.01,-0.015,-0.085,-0.1,-0.111,-0.085
-0.015,-0.03,-0.015,0.023,0.0,-0.022,0.01,-0.015,-0.085,-0.1,-0.115,-0.085
-0.015,-0.038,-0.023,0.027,0.004,-0.03,0.006,-0.019,-0.085,-0.1,-0.115,-0.085
-0.013,-0.046,-0.033,0.03,0.01,-0.04,0.004,-0.02,-0.084,-0.1,-0.115,-0.085
-0.007,-0.054,-0.047,0.03,0.02,-0.05,0.006,-0.022,-0.087,-0.1,-0.115,-0.085
-0.006,-0.063,-0.057,0.035,0.025,-0.059,0.004,-0.026,-0.09,-0.099,-0.115,-0.086
-0.005,-0.07,-0.065,0.038,0.03,-0.067,0.0,-0.03,-0.09,-0.1,-0.115,-0.09
0.02,-0.066,-0.086,0.023,0.053,-0.075,0.0,-0.038,-0.098,-0.112,-0.114,-0.093
0.031,-0.064,-0.095,0.017,0.063,-0.079,-0.003,-0.043,-0.107,-0.119,-0.121,-0.107
0.029,-0.066,-0.095,0.019,0.062,-0.081,-0.005,-0.049,-0.112,-0.122,-0.127,-0.119
0.014,-0.081,-0.095,0.034,0.055,-0.088,-0.005,-0.057,-0.116,-0.126,-0.132,-0.12
-0.015,-0.11,-0.095,0.063,0.04,-0.102,-0.005,-0.06,-0.12,-0.13,-0.14,-0.12
-0.021,-0.116,-0.095,0.069,0.038,-0.105,-0.001,-0.056,-0.12,-0.13,-0.145,-0.12
-0.019,-0.114,-0.095,0.067,0.039,-0.105,0.0,-0.054,-0.123,-0.133,-0.145,-0.12
-0.022,-0.117,-0.095,0.07,0.037,-0.106,0.0,-0.056,-0.126,-0.135,-0.145,-0.12
-0.025,-0.12,-0.095,0.073,0.035,-0.107,0.0,-0.054,-0.125,-0.136,-0.145,-0.12
-0.025,-0.12,-0.095,0.073,0.035,-0.107,0.0,-0.05,-0.125,-0.14,-0.145,-0.12
-0.039,-0.134,-0.095,0.087,0.028,-0.114,0.0,-0.05,-0.129,-0.14,-0.145,-0.12
-0.069,-0.164,-0.095,0.117,0.013,-0.129,0.0,-0.05,-0.13,-0.143,-0.145,-0.12
-0.081,-0.176,-0.095,0.129,0.007,-0.135,0.0,-0.05,-0.13,-0.146,-0.145,-0.12
-0.074,-0.169,-0.095,0.122,0.011,-0.131,0.0,-0.049,-0.129,-0.145,-0.145,-0.12
-0.075,-0.17,-0.095,0.123,0.01,-0.132,0.0,-0.045,-0.125,-0.145,-0.145,-0.12
-0.075,-0.17,-0.095,0.123,0.01,-0.132,0.0,-0.045,-0.125,-0.145,-0.145,-0.12
-0.075,-0.17,-0.095,0.123,0.01,-0.132,0.0,-0.045,-0.125,-0.145,-0.145,-0.12
-0.075,-0.17,-0.095,0.123,0.01,-0.132,0.0,-0.045,-0.125,-0.145,-0.145,-0.12
-0.075,-0.17,-0.095,0.123,0.01,-0.132,0.001,-0.044,-0.125,-0.145,-0.145,-0.12
-0.075,-0.17,-0.095,0.123,0.01,-0.132,0.005,-0.04,-0.125,-0.145,-0.145,-0.12
-0.074,-0.17,-0.096,0.123,0.011,-0.132,0.005,-0.04,-0.125,-0.145,-0.145,-0.12
-0.078,-0.17,-0.092,0.124,0.007,-0.13,0.005,-0.041,-0.126,-0.145,-0.145,-0.12
-0.064,-0.171,-0.107,0.118,0.022,-0.138,0.005,-0.038,-0.123,-0.145,-0.145,-0.12
-0.042,-0.169,-0.127,0.106,0.042,-0.147,0.005,-0.035,-0.12,-0.145,-0.145,-0.12
-0.05,-0.17,-0.12,0.11,0.035,-0.145,0.005,-0.035,-0.12,-0.145,-0.145,-0.12
-0.076,-0.196,-0.119,0.136,0.022,-0.158,0.005,-0.035,-0.12,-0.145,-0.145,-0.12
-0.078,-0.199,-0.121,0.139,0.021,-0.16,0.005,-0.036,-0.12,-0.145,-0.145,-0.12
-0.076,-0.194,-0.118,0.135,0.021,-0.156,0.005,-0.033,-0.12,-0.145,-0.145,-0.12
-0.08,-0.194,-0.115,0.138,0.018,-0.155,0.005,-0.03,-0.12,-0.145,-0.145,-0.12
-0.075,-0.19,-0.115,0.133,0.02,-0.152,0.005,-0.03,-0.12,-0.145,-0.145,-0.12
-0.076,-0.19,-0.114,0.134,0.019,-0.152,0.005,-0.03,-0.121,-0.145,-0.145,-0.12
-0.065,-0.187,-0.121,0.127,0.028,-0.154,0.004,-0.032,-0.109,-0.144,-0.145,-0.119
-0.059,-0.185,-0.126,0.122,0.034,-0.155,0.007,-0.022,-0.093,-0.146,-0.145,-0.123
-0.049,-0.184,-0.135,0.117,0.043,-0.159,0.01,0.0,-0.082,-0.142,-0.145,-0.132
-0.02,-0.18,-0.16,0.1,0.07,-0.17,0.015,0.02,-0.07,-0.125,-0.15,-0.135
-0.015,-0.18,-0.165,0.098,0.075,-0.172,0.046,0.05,-0.062,-0.113,-0.168,-0.139
-0.011,-0.176,-0.166,0.094,0.078,-0.171,0.076,0.133,-0.018,-0.097,-0.16,-0.143
-0.015,-0.176,-0.162,0.096,0.074,-0.169,0.108,0.233,0.033,-0.086,-0.144,-0.146
-0.009,-0.171,-0.162,0.09,0.077,-0.166,0.143,0.323,0.086,-0.066,-0.13,-0.152
0.035,-0.15,-0.185,0.058,0.11,-0.167,0.165,0.415,0.165,-0.02,-0.105,-0.15
0.071,-0.137,-0.209,0.033,0.14,-0.173,0.18,0.498,0.251,0.021,-0.084,-0.111
0.109,-0.091,-0.2,-0.009,0.155,-0.145,0.205,0.548,0.353,0.093,-0.034,-0.075
0.137,-0.047,-0.184,-0.045,0.161,-0.115,0.199,0.53,0.454,0.191,0.037,-0.025
0.182,0.021,-0.161,-0.102,0.172,-0.069,0.136,0.418,0.54,0.315,0.143,0.075
0.255,0.165,-0.09,-0.21,0.172,0.037,0.045,0.225,0.62,0.475,0.3,0.215
0.277,0.306,0.029,-0.292,0.123,0.167,-0.058,-0.031,0.695,0.639,0.462,0.365
0.339,0.478,0.139,-0.409,0.1,0.308,-0.206,-0.386,0.702,0.801,0.643,0.53
0.44,0.656,0.216,-0.548,0.112,0.436,-0.369,-0.78,0.684,0.956,0.819,0.696
0.476,0.804,0.328,-0.64,0.074,0.566,-0.489,-1.114,0.678,1.092,0.964,0.837
0.43,0.95,0.52,-0.69,-0.045,0.735,-0.56,-1.37,0.665,1.22,1.115,0.97
0.432,1.121,0.689,-0.777,-0.128,0.905,-0.63,-1.61,0.657,1.362,1.298,1.139
0.356,1.17,0.814,-0.763,-0.229,0.991,-0.679,-1.77,0.638,1.432,1.29,1.205
0.259,1.089,0.83,-0.674,-0.285,0.959,-0.742,-1.874,0.544,1.358,1.221,1.154
0.181,0.945,0.764,-0.563,-0.292,0.854,-0.815,-1.914,0.367,1.158,1.141,1.045
0.075,0.785,0.71,-0.43,-0.318,0.747,-0.84,-1.865,0.19,0.925,0.95,0.92
0.003,0.656,0.654,-0.33,-0.326,0.655,-0.806,-1.827,0.049,0.729,0.789,0.797
-0.047,0.555,0.602,-0.254,-0.325,0.578,-0.769,-1.804,-0.21,0.48,0.617,0.66
-0.142,0.417,0.559,-0.137,-0.352,0.488,-0.724,-1.801,-0.55,0.174,0.404,0.493
-0.25,0.261,0.511,-0.006,-0.381,0.386,-0.666,-1.759,-0.808,-0.089,0.201,0.336
-0.26,0.165,0.425,0.047,-0.343,0.295,-0.615,-1.61,-0.87,-0.215,0.075,0.23
-0.192,0.096,0.288,0.048,-0.24,0.192,-0.559,-1.404,-0.773,-0.234,0.013,0.147
-0.181,0.0,0.181,0.09,-0.181,0.09,-0.506,-1.195,-0.687,-0.251,-0.047,0.089
-0.188,-0.073,0.115,0.13,-0.151,0.021,-0.436,-0.998,-0.617,-0.258,-0.095,0.04
-0.163,-0.11,0.053,0.137,-0.108,-0.028,-0.349,-0.816,-0.536,-0.241,-0.121,-0.004
-0.145,-0.15,-0.005,0.148,-0.07,-0.077,-0.275,-0.65,-0.465,-0.23,-0.14,-0.035
-0.149,-0.172,-0.023,0.161,-0.062,-0.098,-0.218,-0.5,-0.387,-0.218,-0.137,-0.069
-0.146,-0.179,-0.033,0.163,-0.056,-0.106,-0.164,-0.404,-0.329,-0.206,-0.134,-0.08
-0.133,-0.18,-0.047,0.157,-0.043,-0.113,-0.12,-0.337,-0.28,-0.194,-0.135,-0.081
-0.124,-0.181,-0.057,0.153,-0.033,-0.118,-0.086,-0.275,-0.236,-0.182,-0.135,-0.086
-0.115,-0.185,-0.07,0.15,-0.022,-0.127,-0.05,-0.215,-0.205,-0.17,-0.135,-0.09
-0.09,-0.189,-0.099,0.14,0.004,-0.143,-0.022,-0.153,-0.176,-0.158,-0.135,-0.091
-0.08,-0.194,-0.114,0.137,0.017,-0.154,0.005,-0.114,-0.157,-0.145,-0.135,-0.087
-0.079,-0.194,-0.115,0.137,0.019,-0.155,0.021,-0.085,-0.142,-0.137,-0.135,-0.084
-0.074,-0.197,-0.123,0.136,0.025,-0.16,0.026,-0.06,-0.126,-0.135,-0.134,-0.085
-0.07,-0.21,-0.14,0.14,0.035,-0.175,0.03,-0.045,-0.11,-0.135,-0.13,-0.085
-0.066,-0.211,-0.145,0.139,0.04,-0.177,0.038,-0.029,-0.096,-0.135,-0.13,-0.085
-0.065,-0.21,-0.144,0.138,0.04,-0.176,0.043,-0.013,-0.097,-0.132,-0.13,-0.086
-0.063,-0.21,-0.147,0.137,0.042,-0.178,0.049,0.002,-0.101,-0.129,-0.13,-0.083
-0.059,-0.21,-0.15,0.134,0.045,-0.18,0.056,0.012,-0.1,-0.13,-0.13,-0.089
-0.06,-0.21,-0.15,0.135,0.045,-0.18,0.06,0.015,-0.1,-0.13,-0.13,-0.105
-0.063,-0.218,-0.155,0.141,0.046,-0.186,0.064,0.019,-0.104,-0.13,-0.13,-0.102
-0.071,-0.225,-0.153,0.149,0.041,-0.189,0.065,0.021,-0.105,-0.127,-0.131,-0.099
-0.06,-0.223,-0.163,0.142,0.052,-0.193,0.065,0.019,-0.106,-0.124,-0.128,-0.1
-0.053,-0.229,-0.176,0.141,0.062,-0.202,0.065,0.022,-0.103,-0.125,-0.125,-0.1
-0.085,-0.25,-0.165,0.168,0.04,-0.207,0.07,0.03,-0.095,-0.125,-0.125,-0.1
-0.102,-0.255,-0.153,0.179,0.026,-0.204,0.092,0.034,-0.091,-0.121,-0.125,-0.1
-0.081,-0.255,-0.174,0.169,0.047,-0.214,0.094,0.038,-0.084,-0.12,-0.125,-0.1
-0.069,-0.255,-0.186,0.162,0.059,-0.221,0.089,0.043,-0.078,-0.12,-0.125,-0.1
-0.076,-0.255,-0.179,0.165,0.052,-0.216,0.09,0.045,-0.073,-0.12,-0.125,-0.099
-0.075,-0.255,-0.18,0.165,0.053,-0.217,0.09,0.045,-0.065,-0.12,-0.125,-0.095
-0.079,-0.255,-0.176,0.167,0.049,-0.215,0.09,0.053,-0.061,-0.116,-0.125,-0.095
-0.08,-0.255,-0.175,0.168,0.048,-0.215,0.09,0.058,-0.057,-0.115,-0.126,-0.095
-0.082,-0.255,-0.173,0.169,0.046,-0.214,0.09,0.064,-0.054,-0.115,-0.123,-0.095
-0.086,-0.255,-0.169,0.17,0.042,-0.212,0.09,0.071,-0.055,-0.115,-0.12,-0.095
-0.085,-0.255,-0.17,0.17,0.043,-0.212,0.09,0.075,-0.055,-0.115,-0.12,-0.095
-0.084,-0.255,-0.171,0.169,0.044,-0.212,0.086,0.079,-0.051,-0.111,-0.12,-0.095
-0.09,-0.256,-0.167,0.173,0.039,-0.211,0.085,0.084,-0.049,-0.11,-0.12,-0.096
-0.085,-0.25,-0.165,0.168,0.04,-0.207,0.085,0.086,-0.051,-0.108,-0.12,-0.093
-0.073,-0.237,-0.164,0.156,0.045,-0.2,0.085,0.094,-0.049,-0.104,-0.12,-0.09
-0.07,-0.23,-0.16,0.15,0.045,-0.195,0.085,0.11,-0.045,-0.105,-0.12,-0.09
-0.062,-0.222,-0.16,0.142,0.049,-0.191,0.085,0.107,-0.045,-0.106,-0.12,-0.09
-0.057,-0.214,-0.157,0.136,0.05,-0.185,0.085,0.104,-0.046,-0.102,-0.117,-0.09
-0.052,-0.206,-0.154,0.129,0.051,-0.18,0.085,0.105,-0.043,-0.1,-0.114,-0.09
-0.043,-0.198,-0.155,0.121,0.056,-0.176,0.084,0.105,-0.04,-0.099,-0.115,-0.09
-0.035,-0.19,-0.155,0.113,0.06,-0.172,0.08,0.105,-0.04,-0.095,-0.115,-0.09
-0.035,-0.185,-0.151,0.11,0.058,-0.168,0.08,0.101,-0.04,-0.095,-0.115,-0.09
-0.035,-0.185,-0.15,0.11,0.058,-0.167,0.08,0.1,-0.037,-0.096,-0.115,-0.091
-0.037,-0.185,-0.148,0.111,0.056,-0.166,0.08,0.1,-0.034,-0.093,-0.115,-0.088
-0.04,-0.185,-0.145,0.113,0.053,-0.165,0.08,0.1,-0.035,-0.09,-0.115,-0.085
-0.04,-0.185,-0.145,0.113,0.053,-0.165,0.08,0.1,-0.035,-0.09,-0.115,-0.085
-0.044,-0.185,-0.141,0.115,0.049,-0.163,0.08,0.1,-0.031,-0.086,-0.111,-0.085
-0.045,-0.185,-0.139,0.115,0.047,-0.162,0.081,0.097,-0.029,-0.084,-0.11,-0.086
-0.045,-0.185,-0.141,0.115,0.048,-0.163,0.078,0.094,-0.031,-0.086,-0.11,-0.083
-0.045,-0.184,-0.139,0.115,0.047,-0.161,0.083,0.095,-0.029,-0.084,-0.11,-0.08
-0.045,-0.18,-0.135,0.113,0.045,-0.157,0.1,0.095,-0.025,-0.08,-0.11,-0.08
-0.045,-0.18,-0.135,0.113,0.045,-0.157,0.105,0.095,-0.025,-0.08,-0.11,-0.08
-0.048,-0.18,-0.132,0.114,0.042,-0.156,0.105,0.094,-0.025,-0.081,-0.11,-0.081
-0.05,-0.18,-0.13,0.115,0.04,-0.155,0.105,0.098,-0.025,-0.078,-0.11,-0.078
-0.051,-0.18,-0.129,0.115,0.039,-0.155,0.105,0.107,-0.024,-0.075,-0.11,-0.075
-0.055,-0.18,-0.125,0.118,0.035,-0.152,0.105,0.11,-0.02,-0.075,-0.11,-0.075
-0.055,-0.18,-0.125,0.118,0.035,-0.152,0.105,0.114,-0.016,-0.071,-0.106,-0.075
-0.055,-0.181,-0.126,0.119,0.035,-0.153,0.105,0.118,-0.015,-0.07,-0.105,-0.075
-0.053,-0.175,-0.121,0.115,0.034,-0.148,0.105,0.122,-0.014,-0.068,-0.103,-0.075
-0.049,-0.163,-0.113,0.106,0.033,-0.138,0.105,0.126,-0.009,-0.065,-0.099,-0.074
-0.045,-0.155,-0.11,0.1,0.033,-0.132,0.105,0.13,-0.005,-0.065,-0.1,-0.07
-0.037,-0.143,-0.106,0.09,0.035,-0.124,0.105,0.13,-0.005,-0.061,-0.101,-0.07
-0.032,-0.134,-0.102,0.083,0.035,-0.118,0.105,0.133,-0.002,-0.06,-0.097,-0.07
-0.026,-0.124,-0.099,0.075,0.037,-0.112,0.105,0.135,0.002,-0.058,-0.095,-0.07
-0.019,-0.112,-0.093,0.066,0.037,-0.103,0.105,0.136,0.006,-0.055,-0.094,-0.069
-0.015,-0.105,-0.09,0.06,0.038,-0.097,0.105,0.14,0.01,-0.055,-0.09,-0.065
0.007,-0.1,-0.107,0.047,0.057,-0.104,0.105,0.14,0.014,-0.051,-0.09,-0.065
0.008,-0.1,-0.109,0.046,0.058,-0.104,0.105,0.143,0.019,-0.05,-0.091,-0.065
0.006,-0.098,-0.104,0.047,0.055,-0.101,0.105,0.145,0.02,-0.048,-0.087,-0.065
0.01,-0.095,-0.105,0.043,0.058,-0.1,0.105,0.146,0.021,-0.045,-0.078,-0.065
0.01,-0.095,-0.105,0.043,0.058,-0.1,0.105,0.15,0.025,-0.045,-0.075,-0.065
0.014,-0.091,-0.105,0.039,0.06,-0.097,0.105,0.149,0.029,-0.037,-0.071,-0.061
0.015,-0.09,-0.106,0.038,0.06,-0.097,0.105,0.157,0.031,-0.031,-0.064,-0.057
0.015,-0.088,-0.103,0.037,0.059,-0.095,0.105,0.176,0.043,-0.029,-0.057,-0.053
0.015,-0.085,-0.1,0.035,0.058,-0.092,0.105,0.193,0.058,-0.023,-0.054,-0.049
0.015,-0.085,-0.1,0.035,0.058,-0.092,0.105,0.195,0.06,-0.015,-0.05,-0.045
0.019,-0.081,-0.1,0.031,0.06,-0.09,0.105,0.194,0.058,-0.011,-0.042,-0.04
0.02,-0.08,-0.1,0.03,0.06,-0.09,0.106,0.203,0.075,-0.008,-0.037,-0.041
0.022,-0.078,-0.1,0.028,0.062,-0.089,0.103,0.215,0.089,-0.001,-0.033,-0.037
0.024,-0.075,-0.099,0.025,0.062,-0.087,0.1,0.221,0.09,0.007,-0.029,-0.029
0.02,-0.075,-0.095,0.028,0.058,-0.085,0.1,0.225,0.095,0.015,-0.025,-0.025
0.024,-0.071,-0.095,0.024,0.059,-0.082,0.1,0.229,0.099,0.023,-0.021,-0.017
0.025,-0.07,-0.096,0.023,0.06,-0.082,0.1,0.232,0.103,0.031,-0.017,-0.012
0.026,-0.067,-0.093,0.021,0.06,-0.08,0.1,0.241,0.109,0.039,-0.012,-0.006
0.032,-0.058,-0.089,0.013,0.061,-0.074,0.1,0.26,0.126,0.046,-0.003,0.001
0.04,-0.05,-0.09,0.005,0.065,-0.07,0.1,0.275,0.145,0.05,0.005,0.005
0.049,-0.042,-0.091,-0.003,0.07,-0.066,0.1,0.279,0.144,0.054,0.009,0.013
0.05,-0.034,-0.084,-0.008,0.067,-0.059,0.1,0.289,0.156,0.059,0.015,0.022
0.051,-0.026,-0.077,-0.013,0.064,-0.051,0.1,0.299,0.17,0.06,0.025,0.027
0.056,-0.018,-0.074,-0.018,0.065,-0.046,0.1,0.3,0.177,0.069,0.031,0.031
0.06,-0.01,-0.07,-0.025,0.065,-0.04,0.1,0.305,0.19,0.09,0.035,0.04
0.064,0.002,-0.062,-0.033,0.063,-0.029,0.1,0.327,0.198,0.103,0.052,0.049
0.068,0.011,-0.056,-0.039,0.062,-0.022,0.097,0.33,0.206,0.112,0.057,0.051
0.072,0.019,-0.053,-0.045,0.062,-0.017,0.094,0.338,0.23,0.132,0.069,0.065
0.075,0.027,-0.048,-0.051,0.061,-0.01,0.095,0.359,0.253,0.153,0.089,0.083
0.075,0.035,-0.04,-0.055,0.057,-0.002,0.095,0.365,0.255,0.155,0.095,0.085
0.075,0.043,-0.032,-0.059,0.053,0.005,0.095,0.369,0.265,0.157,0.098,0.088
0.075,0.051,-0.024,-0.063,0.049,0.013,0.095,0.372,0.287,0.176,0.113,0.097
0.074,0.058,-0.016,-0.066,0.045,0.021,0.095,0.381,0.297,0.189,0.121,0.1
0.076,0.068,-0.008,-0.072,0.042,0.03,0.095,0.392,0.304,0.199,0.13,0.11
0.08,0.08,0.0,-0.08,0.04,0.04,0.095,0.395,0.33,0.22,0.155,0.135
0.078,0.082,0.004,-0.081,0.037,0.043,0.095,0.394,0.34,0.228,0.155,0.144
0.096,0.104,0.008,-0.1,0.043,0.055,0.095,0.401,0.341,0.241,0.165,0.147
0.107,0.119,0.012,-0.113,0.047,0.065,0.095,0.408,0.355,0.26,0.182,0.154
0.106,0.122,0.016,-0.115,0.045,0.069,0.095,0.411,0.373,0.272,0.192,0.161
0.12,0.14,0.02,-0.13,0.05,0.08,0.095,0.415,0.375,0.27,0.2,0.165
0.132,0.156,0.024,-0.145,0.054,0.09,0.099,0.418,0.378,0.268,0.204,0.173
0.143,0.171,0.028,-0.157,0.057,0.099,0.1,0.432,0.386,0.285,0.207,0.178
0.142,0.175,0.032,-0.159,0.055,0.103,0.1,0.444,0.392,0.301,0.215,0.184
0.133,0.169,0.036,-0.152,0.049,0.102,0.1,0.446,0.396,0.306,0.228,0.191
0.135,0.17,0.035,-0.153,0.05,0.102,0.1,0.45,0.4,0.31,0.235,0.195
0.149,0.182,0.033,-0.166,0.057,0.108,0.1,0.455,0.403,0.318,0.238,0.203
0.145,0.191,0.047,-0.169,0.048,0.119,0.1,0.455,0.414,0.326,0.252,0.208
0.14,0.199,0.059,-0.17,0.04,0.129,0.1,0.457,0.424,0.334,0.264,0.212
0.146,0.215,0.069,-0.181,0.039,0.141,0.1,0.461,0.425,0.342,0.265,0.216
0.15,0.235,0.085,-0.193,0.032,0.16,0.1,0.46,0.425,0.345,0.265,0.22
0.154,0.24,0.086,-0.197,0.034,0.162,0.1,0.46,0.429,0.345,0.265,0.224
0.159,0.243,0.084,-0.202,0.037,0.164,0.1,0.463,0.43,0.345,0.268,0.225
0.158,0.244,0.086,-0.202,0.036,0.165,0.1,0.466,0.432,0.346,0.271,0.225
0.155,0.239,0.084,-0.197,0.036,0.161,0.101,0.465,0.435,0.344,0.27,0.225
0.15,0.235,0.085,-0.193,0.032,0.16,0.105,0.465,0.435,0.345,0.27,0.225
0.124,0.235,0.111,-0.18,0.006,0.173,0.105,0.469,0.452,0.367,0.274,0.233
0.12,0.233,0.112,-0.177,0.004,0.172,0.105,0.471,0.451,0.367,0.279,0.24
0.127,0.227,0.1,-0.178,0.014,0.163,0.105,0.47,0.442,0.355,0.278,0.237
0.132,0.225,0.093,-0.179,0.019,0.159,0.105,0.471,0.439,0.348,0.284,0.228
0.14,0.225,0.085,-0.183,0.027,0.155,0.105,0.47,0.435,0.34,0.3,0.225
0.136,0.214,0.077,-0.175,0.03,0.145,0.105,0.458,0.427,0.332,0.289,0.221
0.133,0.201,0.068,-0.167,0.032,0.134,0.105,0.446,0.421,0.323,0.275,0.214
0.125,0.189,0.064,-0.157,0.03,0.126,0.105,0.434,0.42,0.318,0.264,0.207
0.121,0.178,0.057,-0.149,0.032,0.117,0.105,0.422,0.411,0.313,0.252,0.204
0.13,0.17,0.04,-0.15,0.045,0.105,0.105,0.41,0.39,0.3,0.24,0.2
0.13,0.158,0.028,-0.144,0.05,0.093,0.105,0.394,0.374,0.288,0.224,0.188
0.134,0.147,0.013,-0.141,0.06,0.08,0.104,0.378,0.355,0.275,0.211,0.175
0.132,0.13,-0.002,-0.131,0.067,0.063,0.11,0.361,0.337,0.267,0.199,0.166
0.115,0.103,-0.012,-0.109,0.064,0.046,0.122,0.347,0.32,0.256,0.187,0.157
0.1,0.08,-0.02,-0.09,0.06,0.03,0.125,0.335,0.3,0.235,0.175,0.145
0.096,0.068,-0.028,-0.082,0.061,0.019,0.125,0.315,0.284,0.219,0.159,0.132
0.092,0.056,-0.036,-0.074,0.064,0.01,0.125,0.298,0.268,0.201,0.146,0.125
0.088,0.044,-0.044,-0.066,0.066,0.0,0.125,0.28,0.252,0.18,0.131,0.112
0.084,0.032,-0.051,-0.058,0.067,-0.009,0.125,0.261,0.235,0.16,0.109,0.089
0.075,0.02,-0.055,-0.047,0.065,-0.017,0.125,0.245,0.215,0.14,0.09,0.07
0.063,0.004,-0.059,-0.034,0.061,-0.027,0.129,0.229,0.195,0.119,0.078,0.057
0.051,-0.012,-0.063,-0.019,0.057,-0.037,0.13,0.216,0.177,0.105,0.066,0.049
0.038,-0.029,-0.066,-0.004,0.052,-0.047,0.13,0.204,0.164,0.096,0.056,0.041
0.012,-0.051,-0.063,0.02,0.038,-0.057,0.13,0.192,0.151,0.087,0.047,0.032
0.0,-0.065,-0.065,0.033,0.033,-0.065,0.13,0.18,0.135,0.075,0.035,0.02
0.053,-0.046,-0.099,-0.003,0.077,-0.072,0.13,0.168,0.123,0.068,0.023,0.012
0.038,-0.067,-0.105,0.015,0.072,-0.086,0.127,0.159,0.111,0.053,0.014,0.004
0.007,-0.092,-0.098,0.042,0.053,-0.095,0.124,0.151,0.099,0.038,0.006,-0.004
0.011,-0.09,-0.101,0.04,0.056,-0.095,0.125,0.143,0.087,0.027,-0.002,-0.012
0.005,-0.095,-0.1,0.045,0.053,-0.097,0.125,0.135,0.075,0.015,-0.01,-0.02
-0.004,-0.1,-0.096,0.052,0.046,-0.097,0.125,0.127,0.063,0.003,-0.018,-0.024
-0.006,-0.1,-0.094,0.053,0.044,-0.096,0.126,0.119,0.053,-0.007,-0.026,-0.03
-0.005,-0.102,-0.097,0.054,0.046,-0.099,0.123,0.111,0.048,-0.012,-0.034,-0.04
-0.014,-0.105,-0.092,0.06,0.039,-0.098,0.12,0.104,0.044,-0.016,-0.042,-0.046
-0.025,-0.11,-0.085,0.068,0.03,-0.097,0.12,0.1,0.04,-0.02,-0.05,-0.05
-0.009,-0.127,-0.119,0.068,0.055,-0.122,0.12,0.092,0.032,-0.028,-0.055,-0.054
-0.006,-0.129,-0.123,0.068,0.059,-0.126,0.12,0.087,0.026,-0.033,-0.055,-0.055
-0.013,-0.124,-0.111,0.069,0.05,-0.117,0.12,0.081,0.024,-0.037,-0.057,-0.054
-0.016,-0.125,-0.11,0.07,0.047,-0.117,0.12,0.074,0.018,-0.041,-0.06,-0.056
-0.02,-0.125,-0.105,0.073,0.043,-0.115,0.12,0.07,0.01,-0.045,-0.06,-0.06
-0.028,-0.125,-0.097,0.077,0.035,-0.111,0.116,0.066,0.006,-0.045,-0.064,-0.06
-0.033,-0.125,-0.092,0.079,0.03,-0.108,0.115,0.062,0.003,-0.048,-0.064,-0.059
-0.037,-0.125,-0.088,0.081,0.026,-0.106,0.115,0.058,-0.004,-0.05,-0.068,-0.062
-0.041,-0.124,-0.084,0.083,0.022,-0.104,0.115,0.055,-0.011,-0.051,-0.077,-0.065
-0.04,-0.12,-0.08,0.08,0.02,-0.1,0.115,0.055,-0.015,-0.055,-0.08,-0.065
-0.035,-0.116,-0.08,0.075,0.023,-0.097,0.115,0.051,-0.019,-0.055,-0.084,-0.065
-0.038,-0.115,-0.077,0.077,0.02,-0.096,0.112,0.046,-0.023,-0.058,-0.085,-0.065
-0.039,-0.114,-0.075,0.077,0.018,-0.094,0.109,0.045,-0.026,-0.061,-0.085,-0.065
-0.034,-0.109,-0.074,0.072,0.02,-0.091,0.11,0.044,-0.025,-0.06,-0.085,-0.066
-0.035,-0.105,-0.07,0.07,0.018,-0.087,0.11,0.04,-0.025,-0.06,-0.085,-0.07
-0.035,-0.105,-0.07,0.07,0.018,-0.087,0.11,0.036,-0.029,-0.06,-0.085,-0.07
-0.035,-0.102,-0.067,0.069,0.016,-0.084,0.11,0.034,-0.031,-0.06,-0.086,-0.07
-0.035,-0.1,-0.065,0.068,0.015,-0.082,0.11,0.037,-0.029,-0.06,-0.083,-0.07
-0.035,-0.099,-0.064,0.068,0.015,-0.081,0.109,0.04,-0.031,-0.06,-0.08,-0.07
-0.035,-0.095,-0.06,0.065,0.013,-0.077,0.105,0.04,-0.035,-0.06,-0.08,-0.07
-0.036,-0.095,-0.059,0.065,0.012,-0.076,0.105,0.04,-0.035,-0.06,-0.08,-0.074
-0.028,-0.096,-0.067,0.062,0.02,-0.081,0.105,0.04,-0.035,-0.06,-0.08,-0.075
-0.026,-0.093,-0.067,0.059,0.021,-0.08,0.105,0.04,-0.035,-0.06,-0.08,-0.075
-0.031,-0.09,-0.058,0.061,0.014,-0.074,0.104,0.04,-0.036,-0.06,-0.08,-0.075
-0.035,-0.09,-0.055,0.063,0.01,-0.072,0.1,0.04,-0.04,-0.06,-0.08,-0.075
-0.039,-0.086,-0.047,0.063,0.004,-0.066,0.1,0.04,-0.04,-0.06,-0.08,-0.075
-0.042,-0.084,-0.042,0.064,0.0,-0.063,0.1,0.04,-0.04,-0.06,-0.077,-0.075
-0.049,-0.086,-0.036,0.067,-0.006,-0.06,0.1,0.04,-0.04,-0.06,-0.074,-0.075
-0.056,-0.084,-0.029,0.07,-0.013,-0.056,0.099,0.04,-0.04,-0.06,-0.075,-0.075
-0.055,-0.08,-0.025,0.068,-0.015,-0.052,0.095,0.04,-0.04,-0.06,-0.075,-0.075
-0.059,-0.08,-0.021,0.069,-0.019,-0.05,0.095,0.04,-0.044,-0.06,-0.075,-0.075
-0.063,-0.08,-0.017,0.072,-0.023,-0.048,0.095,0.04,-0.045,-0.06,-0.075,-0.075
-0.067,-0.08,-0.013,0.074,-0.027,-0.046,0.095,0.04,-0.045,-0.059,-0.075,-0.075
-0.071,-0.08,-0.009,0.076,-0.031,-0.044,0.095,0.04,-0.045,-0.061,-0.075,-0.075
-0.075,-0.08,-0.005,0.078,-0.035,-0.042,0.095,0.04,-0.045,-0.07,-0.075,-0.075
-0.079,-0.08,-0.001,0.08,-0.039,-0.04,0.091,0.04,-0.045,-0.079,-0.071,-0.075
-0.082,-0.08,0.002,0.081,-0.042,-0.039,0.09,0.04,-0.045,-0.081,-0.07,-0.075
-0.072,-0.08,-0.008,0.076,-0.032,-0.044,0.09,0.04,-0.045,-0.08,-0.07,-0.075
-0.049,-0.08,-0.031,0.065,-0.009,-0.055,0.09,0.04,-0.045,-0.08,-0.07,-0.075
-0.035,-0.08,-0.045,0.058,0.005,-0.062,0.09,0.04,-0.045,-0.08,-0.07,-0.075
-0.038,-0.08,-0.041,0.059,0.001,-0.061,0.086,0.04,-0.045,-0.08,-0.07,-0.075
-0.041,-0.081,-0.039,0.061,-0.001,-0.06,0.085,0.04,-0.045,-0.08,-0.07,-0.075
-0.038,-0.078,-0.04,0.058,0.001,-0.059,0.085,0.04,-0.045,-0.08,-0.07,-0.075
-0.035,-0.075,-0.04,0.055,0.003,-0.057,0.085,0.04,-0.045,-0.08,-0.07,-0.075
-0.035,-0.075,-0.04,0.055,0.003,-0.057,0.085,0.04,-0.045,-0.08,-0.07,-0.075
-0.035,-0.075,-0.04,0.055,0.003,-0.057,0.085,0.036,-0.045,-0.08,-0.074,-0.075
-0.035,-0.075,-0.04,0.055,0.003,-0.057,0.082,0.035,-0.045,-0.08,-0.075,-0.074
-0.035,-0.075,-0.04,0.055,0.003,-0.057,0.079,0.035,-0.045,-0.08,-0.075,-0.077
-0.035,-0.075,-0.04,0.055,0.003,-0.057,0.08,0.035,-0.045,-0.08,-0.075,-0.08
-0.035,-0.075,-0.04,0.055,0.003,-0.057,0.08,0.035,-0.045,-0.08,-0.075,-0.08
-0.035,-0.075,-0.04,0.055,0.003,-0.057,0.08,0.035,-0.045,-0.08,-0.079,-0.08
-0.035,-0.075,-0.04,0.055,0.003,-0.057,0.08,0.032,-0.045,-0.08,-0.081,-0.08
-0.035,-0.075,-0.04,0.055,0.003,-0.057,0.08,0.029,-0.045,-0.08,-0.079,-0.08
-0.036,-0.075,-0.039,0.055,0.002,-0.057,0.08,0.03,-0.045,-0.08,-0.081,-0.08
-0.04,-0.075,-0.035,0.058,-0.002,-0.055,0.08,0.03,-0.045,-0.08,-0.085,-0.08
-0.041,-0.075,-0.035,0.059,-0.002,-0.055,0.076,0.03,-0.045,-0.08,-0.085,-0.08
-0.037,-0.072,-0.035,0.055,-0.001,-0.053,0.075,0.03,-0.045,-0.08,-0.085,-0.08
-0.034,-0.069,-0.035,0.052,0.0,-0.052,0.075,0.03,-0.045,-0.08,-0.083,-0.08
-0.035,-0.07,-0.035,0.053,0.0,-0.052,0.075,0.029,-0.045,-0.08,-0.08,-0.08
-0.035,-0.07,-0.035,0.053,0.0,-0.052,0.075,0.025,-0.045,-0.08,-0.08,-0.08
-0.031,-0.066,-0.035,0.049,0.003,-0.05,0.075,0.025,-0.045,-0.08,-0.083,-0.08
-0.03,-0.065,-0.035,0.048,0.003,-0.05,0.075,0.025,-0.045,-0.08,-0.098,-0.08
-0.03,-0.065,-0.035,0.048,0.003,-0.05,0.075,0.025,-0.045,-0.08,-0.107,-0.08
-0.03,-0.065,-0.035,0.048,0.003,-0.05,0.074,0.025,-0.046,-0.081,-0.105,-0.08
-0.03,-0.065,-0.035,0.048,0.003,-0.05,0.07,0.025,-0.05,-0.085,-0.105,-0.08
-0.026,-0.061,-0.035,0.044,0.005,-0.047,0.07,0.021,-0.05,-0.085,-0.105,-0.08
-0.024,-0.059,-0.035,0.042,0.006,-0.047,0.07,0.02,-0.05,-0.084,-0.105,-0.08
-0.027,-0.061,-0.034,0.044,0.003,-0.047,0.07,0.02,-0.05,-0.087,-0.105,-0.08
-0.031,-0.059,-0.028,0.045,-0.001,-0.044,0.07,0.02,-0.051,-0.09,-0.105,-0.08
-0.025,-0.055,-0.03,0.04,0.003,-0.042,0.07,0.02,-0.055,-0.09,-0.105,-0.08
0.001,-0.055,-0.056,0.027,0.029,-0.055,0.07,0.02,-0.055,-0.09,-0.105,-0.08
0.004,-0.055,-0.059,0.026,0.032,-0.057,0.07,0.02,-0.054,-0.093,-0.105,-0.08
-0.002,-0.055,-0.054,0.029,0.026,-0.055,0.07,0.018,-0.057,-0.095,-0.105,-0.08
0.001,-0.054,-0.055,0.027,0.029,-0.055,0.069,0.014,-0.06,-0.095,-0.105,-0.08
0.005,-0.05,-0.055,0.023,0.03,-0.052,0.065,0.01,-0.06,-0.095,-0.105,-0.08
0.006,-0.05,-0.055,0.023,0.03,-0.052,0.065,0.006,-0.06,-0.095,-0.105,-0.084
0.002,-0.05,-0.052,0.024,0.027,-0.051,0.065,0.002,-0.063,-0.098,-0.105,-0.088
0.0,-0.05,-0.049,0.025,0.025,-0.05,0.065,-0.002,-0.067,-0.101,-0.105,-0.092
-0.001,-0.051,-0.05,0.026,0.025,-0.05,0.065,-0.006,-0.071,-0.1,-0.104,-0.095
-0.005,-0.055,-0.05,0.03,0.023,-0.052,0.065,-0.01,-0.075,-0.1,-0.105,-0.095
-0.005,-0.055,-0.05,0.03,0.023,-0.052,0.065,-0.014,-0.075,-0.1,-0.122,-0.095
-0.008,-0.055,-0.047,0.032,0.02,-0.051,0.065,-0.015,-0.078,-0.1,-0.124,-0.095
-0.011,-0.055,-0.044,0.033,0.017,-0.05,0.065,-0.017,-0.081,-0.1,-0.119,-0.095
-0.01,-0.055,-0.045,0.033,0.018,-0.05,0.065,-0.021,-0.08,-0.101,-0.12,-0.095
-0.01,-0.055,-0.045,0.033,0.018,-0.05,0.065,-0.02,-0.08,-0.105,-0.12,-0.095
-0.011,-0.056,-0.045,0.034,0.017,-0.05,0.065,-0.02,-0.08,-0.105,-0.12,-0.095
-0.004,-0.049,-0.046,0.027,0.021,-0.047,0.065,-0.023,-0.079,-0.104,-0.12,-0.095
-0.016,-0.059,-0.043,0.038,0.014,-0.051,0.065,-0.026,-0.082,-0.107,-0.12,-0.095
-0.037,-0.077,-0.04,0.057,0.002,-0.058,0.065,-0.025,-0.085,-0.11,-0.12,-0.095
-0.03,-0.07,-0.04,0.05,0.005,-0.055,0.065,-0.025,-0.085,-0.11,-0.12,-0.095
-0.025,-0.065,-0.04,0.045,0.008,-0.052,0.065,-0.029,-0.085,-0.11,-0.116,-0.095
-0.025,-0.065,-0.041,0.045,0.009,-0.052,0.065,-0.031,-0.085,-0.113,-0.115,-0.095
-0.025,-0.064,-0.038,0.045,0.007,-0.05,0.065,-0.029,-0.085,-0.116,-0.115,-0.095
-0.024,-0.059,-0.035,0.042,0.005,-0.046,0.065,-0.031,-0.086,-0.115,-0.115,-0.095
-0.02,-0.055,-0.035,0.038,0.008,-0.045,0.065,-0.035,-0.09,-0.115,-0.115,-0.095
-0.019,-0.054,-0.035,0.037,0.008,-0.045,0.065,-0.035,-0.09,-0.115,-0.115,-0.095
-0.026,-0.061,-0.035,0.044,0.005,-0.048,0.065,-0.035,-0.09,-0.112,-0.115,-0.095
-0.034,-0.068,-0.034,0.051,0.001,-0.051,0.065,-0.035,-0.09,-0.109,-0.115,-0.095
-0.043,-0.08,-0.037,0.062,-0.003,-0.058,0.065,-0.035,-0.09,-0.11,-0.114,-0.095
-0.05,-0.1,-0.05,0.075,0.0,-0.075,0.065,-0.035,-0.09,-0.11,-0.11,-0.095
-0.033,-0.097,-0.064,0.065,0.016,-0.08,0.064,-0.035,-0.09,-0.11,-0.11,-0.095
-0.031,-0.094,-0.063,0.063,0.016,-0.078,0.072,-0.035,-0.09,-0.11,-0.11,-0.095
-0.035,-0.094,-0.059,0.064,0.012,-0.076,0.074,-0.035,-0.09,-0.11,-0.11,-0.095
-0.028,-0.088,-0.06,0.058,0.016,-0.074,0.069,-0.035,-0.09,-0.11,-0.11,-0.095
-0.03,-0.09,-0.06,0.06,0.015,-0.075,0.07,-0.035,-0.09,-0.11,-0.11,-0.095
-0.055,-0.115,-0.06,0.085,0.002,-0.088,0.07,-0.035,-0.09,-0.11,-0.11,-0.095
-0.06,-0.12,-0.06,0.09,0.0,-0.09,0.07,-0.035,-0.089,-0.11,-0.11,-0.094
-0.052,-0.112,-0.06,0.082,0.005,-0.085,0.068,-0.035,-0.092,-0.11,-0.11,-0.097
-0.05,-0.11,-0.06,0.08,0.005,-0.085,0.065,-0.035,-0.095,-0.11,-0.111,-0.1
-0.05,-0.11,-0.06,0.08,0.005,-0.085,0.065,-0.035,-0.095,-0.11,-0.115,-0.1
-0.046,-0.106,-0.06,0.076,0.008,-0.082,0.065,-0.035,-0.095,-0.11,-0.119,-0.1
-0.045,-0.105,-0.06,0.075,0.008,-0.082,0.066,-0.035,-0.095,-0.11,-0.12,-0.1
-0.044,-0.104,-0.06,0.074,0.008,-0.082,0.063,-0.035,-0.095,-0.11,-0.12,-0.1
-0.038,-0.099,-0.06,0.069,0.011,-0.079,0.06,-0.035,-0.095,-0.11,-0.12,-0.1
-0.035,-0.095,-0.06,0.065,0.013,-0.077,0.06,-0.035,-0.095,-0.11,-0.12,-0.1
-0.039,-0.095,-0.056,0.068,0.009,-0.075,0.06,-0.035,-0.095,-0.11,-0.12,-0.1
-0.038,-0.092,-0.055,0.065,0.009,-0.073,0.06,-0.035,-0.095,-0.11,-0.12,-0.1
-0.034,-0.089,-0.055,0.062,0.011,-0.071,0.06,-0.035,-0.095,-0.11,-0.12,-0.1
-0.036,-0.091,-0.055,0.064,0.01,-0.073,0.059,-0.035,-0.095,-0.11,-0.121,-0.1
-0.04,-0.095,-0.055,0.068,0.008,-0.075,0.055,-0.035,-0.095,-0.11,-0.125,-0.1
-0.04,-0.095,-0.055,0.068,0.008,-0.075,0.055,-0.035,-0.095,-0.11,-0.125,-0.1
-0.04,-0.095,-0.055,0.068,0.008,-0.075,0.055,-0.035,-0.092,-0.11,-0.125,-0.1
-0.04,-0.095,-0.055,0.068,0.008,-0.075,0.055,-0.035,-0.089,-0.11,-0.125,-0.1
-0.041,-0.096,-0.055,0.069,0.008,-0.075,0.054,-0.035,-0.09,-0.111,-0.125,-0.1
-0.045,-0.1,-0.055,0.073,0.005,-0.077,0.05,-0.035,-0.09,-0.115,-0.125,-0.1
-0.045,-0.1,-0.055,0.073,0.005,-0.077,0.05,-0.039,-0.09,-0.115,-0.125,-0.1
-0.045,-0.1,-0.055,0.073,0.005,-0.077,0.05,-0.041,-0.087,-0.115,-0.126,-0.1
-0.045,-0.1,-0.055,0.073,0.005,-0.077,0.05,-0.038,-0.084,-0.115,-0.123,-0.1
-0.046,-0.1,-0.054,0.073,0.004,-0.077,0.05,-0.035,-0.085,-0.114,-0.12,-0.1
-0.05,-0.1,-0.05,0.075,0.0,-0.075,0.05,-0.035,-0.085,-0.11,-0.12,-0.1
-0.054,-0.104,-0.05,0.079,-0.001,-0.077,0.058,-0.035,-0.085,-0.11,-0.12,-0.1
-0.059,-0.105,-0.047,0.082,-0.005,-0.076,0.064,-0.035,-0.082,-0.11,-0.117,-0.1
-0.06,-0.105,-0.045,0.083,-0.007,-0.075,0.065,-0.035,-0.079,-0.11,-0.115,-0.1
-0.061,-0.105,-0.044,0.083,-0.008,-0.075,0.065,-0.034,-0.08,-0.11,-0.115,-0.1
-0.065,-0.105,-0.04,0.085,-0.012,-0.072,0.065,-0.03,-0.08,-0.11,-0.115,-0.1
-0.066,-0.106,-0.04,0.086,-0.013,-0.072,0.069,-0.03,-0.08,-0.11,-0.115,-0.096
-0.057,-0.097,-0.04,0.077,-0.008,-0.068,0.071,-0.03,-0.081,-0.111,-0.112,-0.095
-0.045,-0.084,-0.039,0.064,-0.003,-0.062,0.069,-0.03,-0.078,-0.108,-0.109,-0.095
-0.04,-0.081,-0.041,0.06,0.001,-0.061,0.071,-0.03,-0.075,-0.105,-0.11,-0.095
-0.04,-0.095,-0.055,0.068,0.008,-0.075,0.075,-0.03,-0.075,-0.105,-0.11,-0.095
-0.04,-0.124,-0.085,0.082,0.023,-0.105,0.075,-0.03,-0.075,-0.105,-0.11,-0.095
-0.043,-0.136,-0.094,0.09,0.026,-0.115,0.075,-0.027,-0.076,-0.105,-0.107,-0.095
-0.046,-0.132,-0.086,0.089,0.02,-0.109,0.075,-0.024,-0.073,-0.105,-0.104,-0.095
-0.043,-0.139,-0.096,0.091,0.027,-0.117,0.075,-0.025,-0.07,-0.105,-0.105,-0.094
-0.035,-0.16,-0.125,0.098,0.045,-0.142,0.075,-0.025,-0.07,-0.105,-0.105,-0.09
-0.035,-0.157,-0.122,0.096,0.044,-0.139,0.075,-0.025,-0.07,-0.105,-0.101,-0.09
-0.035,-0.155,-0.119,0.095,0.043,-0.136,0.075,-0.026,-0.07,-0.102,-0.1,-0.09
-0.035,-0.153,-0.119,0.094,0.042,-0.135,0.075,-0.023,-0.07,-0.099,-0.1,-0.09
-0.035,-0.149,-0.114,0.093,0.04,-0.131,0.075,-0.02,-0.07,-0.1,-0.1,-0.09
-0.035,-0.15,-0.115,0.093,0.04,-0.132,0.075,-0.02,-0.075,-0.1,-0.1,-0.09
-0.035,-0.151,-0.116,0.093,0.04,-0.133,0.075,-0.02,-0.092,-0.1,-0.096,-0.09
-0.035,-0.147,-0.112,0.091,0.039,-0.129,0.075,-0.02,-0.093,-0.1,-0.095,-0.091
-0.035,-0.145,-0.11,0.09,0.038,-0.127,0.075,-0.02,-0.089,-0.1,-0.095,-0.088
-0.035,-0.144,-0.109,0.09,0.038,-0.126,0.075,-0.02,-0.09,-0.1,-0.095,-0.085
-0.035,-0.14,-0.105,0.088,0.035,-0.122,0.075,-0.02,-0.09,-0.1,-0.095,-0.085
-0.035,-0.14,-0.105,0.088,0.035,-0.122,0.075,-0.024,-0.09,-0.1,-0.099,-0.085
-0.036,-0.14,-0.105,0.088,0.035,-0.122,0.075,-0.025,-0.087,-0.097,-0.103,-0.085
-0.033,-0.14,-0.107,0.087,0.037,-0.123,0.075,-0.025,-0.084,-0.095,-0.107,-0.085
-0.03,-0.14,-0.11,0.085,0.04,-0.125,0.075,-0.025,-0.085,-0.095,-0.111,-0.085
-0.03,-0.14,-0.11,0.085,0.04,-0.125,0.075,-0.025,-0.085,-0.1,-0.11,-0.085
-0.03,-0.14,-0.11,0.085,0.04,-0.125,0.075,-0.025,-0.085,-0.117,-0.106,-0.085
-0.03,-0.14,-0.11,0.085,0.04,-0.125,0.075,-0.025,-0.082,-0.119,-0.105,-0.086
-0.03,-0.14,-0.11,0.085,0.04,-0.125,0.075,-0.025,-0.079,-0.114,-0.105,-0.083
-0.03,-0.14,-0.11,0.085,0.04,-0.125,0.075,-0.025,-0.08,-0.115,-0.105,-0.08
-0.03,-0.14,-0.11,0.085,0.04,-0.125,0.075,-0.025,-0.08,-0.115,-0.105,-0.08
-0.026,-0.14,-0.114,0.083,0.044,-0.127,0.075,-0.025,-0.08,-0.115,-0.101,-0.08
-0.025,-0.14,-0.115,0.083,0.045,-0.127,0.072,-0.025,-0.081,-0.112,-0.1,-0.08
-0.025,-0.14,-0.115,0.083,0.045,-0.127,0.069,-0.025,-0.078,-0.109,-0.1,-0.08
-0.025,-0.14,-0.115,0.083,0.045,-0.127,0.07,-0.026,-0.075,-0.11,-0.1,-0.08
-0.025,-0.14,-0.115,0.083,0.045,-0.127,0.07,-0.03,-0.075,-0.11,-0.1,-0.08
-0.025,-0.14,-0.115,0.083,0.045,-0.127,0.07,-0.03,-0.075,-0.11,-0.096,-0.08
-0.026,-0.14,-0.114,0.083,0.044,-0.127,0.07,-0.03,-0.076,-0.107,-0.095,-0.08
-0.023,-0.14,-0.117,0.082,0.047,-0.128,0.07,-0.03,-0.073,-0.104,-0.095,-0.08
-0.019,-0.14,-0.12,0.08,0.05,-0.13,0.07,-0.03,-0.07,-0.105,-0.095,-0.08
-0.02,-0.14,-0.12,0.08,0.05,-0.13,0.07,-0.03,-0.07,-0.105,-0.095,-0.08
-0.024,-0.144,-0.12,0.084,0.049,-0.131,0.07,-0.03,-0.07,-0.105,-0.095,-0.08
-0.029,-0.149,-0.12,0.089,0.046,-0.134,0.07,-0.03,-0.07,-0.106,-0.092,-0.077
-0.029,-0.15,-0.121,0.09,0.045,-0.135,0.07,-0.03,-0.07,-0.103,-0.089,-0.074
-0.032,-0.151,-0.119,0.091,0.044,-0.135,0.07,-0.03,-0.071,-0.1,-0.09,-0.075
-0.035,-0.155,-0.12,0.095,0.043,-0.137,0.07,-0.03,-0.075,-0.1,-0.09,-0.075
-0.017,-0.155,-0.138,0.086,0.061,-0.146,0.066,-0.03,-0.076,-0.1,-0.09,-0.075
-0.022,-0.158,-0.136,0.09,0.057,-0.147,0.065,-0.031,-0.072,-0.101,-0.087,-0.075
-0.033,-0.161,-0.127,0.097,0.047,-0.144,0.065,-0.028,-0.07,-0.098,-0.084,-0.075
-0.036,-0.16,-0.123,0.099,0.043,-0.141,0.065,-0.025,-0.07,-0.095,-0.085,-0.075
-0.045,-0.16,-0.115,0.103,0.035,-0.137,0.065,-0.025,-0.07,-0.095,-0.085,-0.075
-0.049,-0.16,-0.111,0.105,0.031,-0.135,0.065,-0.025,-0.07,-0.095,-0.085,-0.075
-0.056,-0.16,-0.104,0.108,0.024,-0.132,0.065,-0.022,-0.07,-0.095,-0.086,-0.075
-0.063,-0.16,-0.097,0.112,0.017,-0.128,0.065,-0.02,-0.07,-0.095,-0.083,-0.075
-0.064,-0.16,-0.096,0.113,0.016,-0.127,0.065,-0.02,-0.07,-0.095,-0.08,-0.075
-0.06,-0.16,-0.1,0.11,0.02,-0.13,0.065,-0.02,-0.07,-0.095,-0.08,-0.075
-0.06,-0.16,-0.1,0.11,0.02,-0.13,0.065,-0.02,-0.066,-0.095,-0.08,-0.071
-0.06,-0.16,-0.1,0.11,0.02,-0.13,0.065,-0.017,-0.065,-0.095,-0.08,-0.07
-0.061,-0.16,-0.099,0.11,0.019,-0.13,0.065,-0.014,-0.065,-0.095,-0.08,-0.07
-0.058,-0.16,-0.102,0.109,0.022,-0.131,0.066,-0.015,-0.065,-0.095,-0.079,-0.07
-0.045,-0.16,-0.115,0.103,0.035,-0.137,0.07,-0.015,-0.065,-0.095,-0.075,-0.07
-0.034,-0.16,-0.126,0.097,0.046,-0.143,0.074,-0.015,-0.065,-0.095,-0.075,-0.066
-0.013,-0.161,-0.147,0.087,0.067,-0.154,0.078,-0.012,-0.065,-0.095,-0.075,-0.065
-0.004,-0.158,-0.154,0.082,0.075,-0.156,0.081,-0.009,-0.065,-0.095,-0.075,-0.065
-0.021,-0.163,-0.142,0.093,0.06,-0.152,0.079,-0.01,-0.064,-0.095,-0.075,-0.065
-0.045,-0.18,-0.135,0.113,0.045,-0.157,0.075,-0.01,-0.06,-0.095,-0.075,-0.065
-0.046,-0.177,-0.131,0.111,0.043,-0.154,0.075,-0.006,-0.06,-0.095,-0.075,-0.061
-0.047,-0.172,-0.124,0.109,0.039,-0.148,0.072,-0.005,-0.06,-0.095,-0.072,-0.06
-0.052,-0.168,-0.116,0.11,0.032,-0.141,0.069,-0.005,-0.06,-0.095,-0.069,-0.06
-0.056,-0.165,-0.109,0.111,0.027,-0.136,0.07,-0.005,-0.06,-0.095,-0.07,-0.06
-0.06,-0.165,-0.105,0.113,0.023,-0.135,0.07,-0.005,-0.06,-0.095,-0.07,-0.06
-0.061,-0.161,-0.101,0.111,0.02,-0.131,0.066,-0.001,-0.06,-0.095,-0.07,-0.06
-0.057,-0.156,-0.1,0.106,0.022,-0.128,0.065,0.001,-0.06,-0.095,-0.071,-0.057
-0.055,-0.155,-0.1,0.105,0.023,-0.127,0.063,-0.001,-0.059,-0.095,-0.068,-0.054
-0.055,-0.154,-0.1,0.105,0.023,-0.127,0.06,0.001,-0.062,-0.095,-0.065,-0.055
-0.05,-0.15,-0.1,0.1,0.025,-0.125,0.06,0.0,-0.07,-0.095,-0.065,-0.055
-0.045,-0.145,-0.1,0.095,0.028,-0.122,0.058,-0.022,-0.066,-0.096,-0.065,-0.055
-0.049,-0.146,-0.097,0.097,0.025,-0.121,0.074,-0.019,-0.065,-0.089,-0.065,-0.052
-0.048,-0.142,-0.094,0.095,0.024,-0.118,0.095,-0.004,-0.063,-0.083,-0.065,-0.049
-0.038,-0.133,-0.095,0.086,0.029,-0.114,0.108,0.001,-0.06,-0.078,-0.065,-0.05
-0.03,-0.125,-0.095,0.078,0.033,-0.11,0.115,0.01,-0.06,-0.07,-0.065,-0.05
-0.022,-0.117,-0.095,0.07,0.037,-0.106,0.119,0.022,-0.056,-0.066,-0.061,-0.05
-0.013,-0.109,-0.096,0.062,0.042,-0.103,0.124,0.031,-0.055,-0.059,-0.06,-0.05
-0.009,-0.101,-0.091,0.055,0.042,-0.096,0.125,0.04,-0.053,-0.053,-0.058,-0.048
-0.01,-0.094,-0.084,0.052,0.037,-0.089,0.126,0.045,-0.05,-0.049,-0.055,-0.044
-0.01,-0.09,-0.08,0.05,0.035,-0.085,0.13,0.04,-0.05,-0.045,-0.055,-0.04
-0.01,-0.082,-0.072,0.046,0.031,-0.077,0.13,0.04,-0.046,-0.045,-0.051,-0.036
-0.007,-0.074,-0.067,0.041,0.03,-0.07,0.132,0.04,-0.045,-0.045,-0.05,-0.035
-0.005,-0.066,-0.061,0.036,0.028,-0.063,0.137,0.04,-0.043,-0.045,-0.048,-0.034
-0.005,-0.058,-0.053,0.032,0.024,-0.055,0.132,0.04,-0.04,-0.045,-0.045,-0.029
0.0,-0.05,-0.05,0.025,0.025,-0.05,0.115,0.04,-0.04,-0.045,-0.045,-0.025
0.008,-0.042,-0.05,0.017,0.029,-0.046,0.103,0.04,-0.036,-0.045,-0.041,-0.025
0.017,-0.033,-0.05,0.008,0.034,-0.041,0.091,0.037,-0.035,-0.045,-0.04,-0.022
0.019,-0.031,-0.05,0.006,0.035,-0.04,0.078,0.035,-0.035,-0.045,-0.038,-0.018
0.014,-0.036,-0.05,0.011,0.033,-0.042,0.068,0.034,-0.035,-0.045,-0.035,-0.014
0.015,-0.035,-0.05,0.01,0.033,-0.042,0.065,0.03,-0.035,-0.045,-0.035,-0.015
0.015,-0.035,-0.05,0.01,0.033,-0.042,0.065,0.03,-0.035,-0.045,-0.031,-0.019
0.015,-0.035,-0.05,0.01,0.033,-0.042,0.065,0.027,-0.035,-0.045,-0.03,-0.02
0.015,-0.035,-0.05,0.01,0.033,-0.042,0.065,0.025,-0.035,-0.045,-0.028,-0.02
0.015,-0.035,-0.05,0.01,0.033,-0.042,0.065,0.024,-0.035,-0.045,-0.025,-0.02
0.015,-0.035,-0.05,0.01,0.033,-0.042,0.065,0.02,-0.035,-0.045,-0.025,-0.02
0.015,-0.035,-0.05,0.01,0.033,-0.042,0.065,0.02,-0.035,-0.045,-0.025,-0.024
0.015,-0.035,-0.05,0.01,0.033,-0.042,0.065,0.021,-0.035,-0.045,-0.025,-0.025
0.014,-0.035,-0.049,0.011,0.032,-0.042,0.065,0.018,-0.035,-0.045,-0.025,-0.025
0.008,-0.035,-0.043,0.014,0.026,-0.039,0.065,0.015,-0.035,-0.045,-0.025,-0.025
0.01,-0.035,-0.045,0.013,0.028,-0.04,0.065,0.015,-0.035,-0.045,-0.025,-0.025
0.036,-0.046,-0.082,0.005,0.059,-0.064,0.065,0.011,-0.035,-0.045,-0.025,-0.025
0.035,-0.063,-0.098,0.014,0.066,-0.08,0.066,0.01,-0.035,-0.045,-0.025,-0.028
0.017,-0.075,-0.092,0.03,0.055,-0.083,0.063,0.008,-0.035,-0.045,-0.025,-0.031
0.018,-0.081,-0.099,0.032,0.059,-0.089,0.06,0.005,-0.035,-0.045,-0.025,-0.03
0.035,-0.085,-0.12,0.025,0.078,-0.102,0.06,0.005,-0.035,-0.045,-0.025,-0.03
0.032,-0.093,-0.125,0.031,0.079,-0.109,0.06,0.001,-0.029,-0.044,-0.033,-0.03
0.027,-0.098,-0.125,0.036,0.076,-0.111,0.06,-0.001,-0.044,-0.054,-0.038,-0.029
0.019,-0.105,-0.125,0.043,0.072,-0.115,0.06,0.001,-0.06,-0.063,-0.044,-0.032
0.008,-0.118,-0.126,0.055,0.067,-0.122,0.06,-0.001,-0.06,-0.066,-0.051,-0.035
0.005,-0.125,-0.13,0.06,0.068,-0.127,0.06,-0.005,-0.06,-0.07,-0.055,-0.035
0.003,-0.127,-0.13,0.062,0.067,-0.129,0.06,-0.005,-0.064,-0.074,-0.059,-0.047
-0.016,-0.145,-0.129,0.081,0.057,-0.137,0.06,-0.004,-0.065,-0.078,-0.064,-0.054
-0.027,-0.159,-0.132,0.093,0.053,-0.145,0.06,-0.007,-0.067,-0.082,-0.065,-0.055
-0.025,-0.16,-0.135,0.093,0.055,-0.148,0.06,-0.01,-0.07,-0.086,-0.066,-0.055
-0.03,-0.165,-0.135,0.098,0.053,-0.15,0.06,-0.01,-0.07,-0.09,-0.07,-0.055
-0.035,-0.169,-0.135,0.102,0.05,-0.152,0.06,-0.01,-0.074,-0.09,-0.07,-0.055
-0.035,-0.17,-0.136,0.103,0.05,-0.152,0.057,-0.009,-0.075,-0.093,-0.073,-0.058
-0.037,-0.17,-0.133,0.104,0.048,-0.151,0.054,-0.012,-0.077,-0.096,-0.075,-0.06
-0.04,-0.17,-0.13,0.105,0.045,-0.15,0.055,-0.015,-0.08,-0.095,-0.076,-0.061
-0.04,-0.17,-0.13,0.105,0.045,-0.15,0.055,-0.015,-0.08,-0.095,-0.08,-0.065
-0.04,-0.17,-0.13,0.105,0.045,-0.15,0.055,-0.015,-0.084,-0.099,-0.081,-0.065
-0.039,-0.17,-0.131,0.105,0.046,-0.15,0.055,-0.015,-0.086,-0.1,-0.077,-0.065
-0.042,-0.17,-0.128,0.106,0.043,-0.149,0.055,-0.017,-0.083,-0.1,-0.075,-0.065
-0.045,-0.17,-0.125,0.108,0.04,-0.147,0.055,-0.02,-0.08,-0.099,-0.075,-0.065
-0.045,-0.17,-0.125,0.108,0.04,-0.147,0.055,-0.02,-0.08,-0.095,-0.075,-0.065
-0.049,-0.174,-0.125,0.112,0.039,-0.149,0.055,-0.02,-0.076,-0.095,-0.075,-0.065
-0.054,-0.179,-0.125,0.117,0.035,-0.152,0.056,-0.023,-0.075,-0.095,-0.072,-0.065
-0.053,-0.179,-0.125,0.116,0.036,-0.152,0.053,-0.025,-0.073,-0.095,-0.069,-0.065
-0.05,-0.174,-0.124,0.113,0.038,-0.149,0.05,-0.025,-0.069,-0.095,-0.07,-0.066
-0.055,-0.175,-0.12,0.115,0.033,-0.147,0.05,-0.025,-0.07,-0.095,-0.07,-0.07
-0.056,-0.175,-0.12,0.116,0.033,-0.147,0.05,-0.025,-0.071,-0.095,-0.07,-0.075
-0.052,-0.172,-0.12,0.112,0.034,-0.146,0.05,-0.028,-0.067,-0.096,-0.071,-0.072
-0.049,-0.169,-0.12,0.109,0.036,-0.145,0.05,-0.031,-0.065,-0.093,-0.068,-0.069
-0.051,-0.17,-0.119,0.111,0.034,-0.145,0.05,-0.03,-0.064,-0.09,-0.065,-0.07
-0.055,-0.17,-0.115,0.113,0.03,-0.142,0.05,-0.03,-0.06,-0.09,-0.065,-0.07
-0.051,-0.166,-0.115,0.109,0.032,-0.14,0.05,-0.031,-0.06,-0.09,-0.065,-0.066
-0.05,-0.165,-0.115,0.108,0.033,-0.14,0.05,-0.021,-0.057,-0.09,-0.065,-0.065
-0.049,-0.165,-0.116,0.107,0.034,-0.141,0.051,-0.011,-0.054,-0.09,-0.066,-0.065
-0.053,-0.165,-0.112,0.109,0.03,-0.139,0.049,-0.002,-0.056,-0.09,-0.064,-0.065
-0.05,-0.165,-0.115,0.108,0.033,-0.14,0.04,0.01,-0.055,-0.09,-0.065,-0.07
-0.001,-0.166,-0.165,0.084,0.082,-0.165,0.032,0.013,-0.035,-0.091,-0.086,-0.09
-0.013,-0.193,-0.18,0.103,0.084,-0.186,0.057,0.062,-0.019,-0.079,-0.089,-0.103
-0.033,-0.205,-0.173,0.12,0.071,-0.189,0.072,0.106,0.005,-0.062,-0.083,-0.107
-0.016,-0.192,-0.176,0.105,0.081,-0.184,0.091,0.163,0.036,-0.045,-0.078,-0.111
-0.01,-0.185,-0.175,0.098,0.083,-0.18,0.15,0.285,0.07,-0.03,-0.075,-0.115
-0.009,-0.176,-0.167,0.093,0.08,-0.171,0.169,0.379,0.148,-0.021,-0.079,-0.118
0.054,-0.177,-0.231,0.062,0.143,-0.204,0.178,0.469,0.237,0.024,-0.043,-0.09
0.108,-0.148,-0.256,0.02,0.182,-0.202,0.206,0.574,0.354,0.1,0.009,-0.055
0.108,-0.094,-0.202,-0.007,0.156,-0.148,0.208,0.626,0.477,0.188,0.06,-0.018
0.125,-0.045,-0.17,-0.04,0.148,-0.107,0.15,0.565,0.565,0.295,0.15,0.06
0.213,0.059,-0.153,-0.136,0.183,-0.046,0.103,0.449,0.657,0.447,0.29,0.184
0.282,0.22,-0.062,-0.251,0.171,0.079,0.037,0.261,0.74,0.625,0.459,0.333
0.331,0.415,0.084,-0.373,0.123,0.249,-0.083,-0.029,0.788,0.802,0.643,0.503
0.4,0.604,0.204,-0.502,0.098,0.404,-0.24,-0.403,0.792,0.972,0.823,0.677
0.465,0.755,0.29,-0.61,0.087,0.522,-0.38,-0.785,0.77,1.125,0.98,0.825
0.451,0.885,0.434,-0.669,0.008,0.659,-0.478,-1.105,0.75,1.242,1.125,0.958
0.403,1.066,0.663,-0.735,-0.13,0.864,-0.565,-1.364,0.728,1.392,1.296,1.12
0.358,1.185,0.827,-0.772,-0.235,1.006,-0.607,-1.557,0.717,1.515,1.433,1.246
0.294,1.156,0.862,-0.725,-0.285,1.009,-0.613,-1.679,0.684,1.524,1.45,1.255
0.205,1.03,0.825,-0.618,-0.31,0.927,-0.65,-1.74,0.555,1.385,1.325,1.155
0.153,0.871,0.717,-0.513,-0.282,0.794,-0.704,-1.76,0.346,1.117,1.121,1.012
0.05,0.714,0.664,-0.382,-0.307,0.689,-0.702,-1.754,0.192,0.881,0.935,0.865
-0.056,0.599,0.656,-0.271,-0.356,0.627,-0.685,-1.75,-0.026,0.642,0.745,0.728
-0.137,0.476,0.613,-0.17,-0.375,0.544,-0.666,-1.729,-0.371,0.342,0.523,0.58
-0.23,0.3,0.53,-0.035,-0.38,0.415,-0.61,-1.675,-0.7,0.04,0.31,0.41
-0.285,0.184,0.47,0.05,-0.378,0.327,-0.56,-1.633,-0.868,-0.171,0.154,0.272
-0.248,0.117,0.365,0.066,-0.307,0.24,-0.524,-1.487,-0.822,-0.23,0.06,0.182
-0.192,0.049,0.241,0.072,-0.216,0.144,-0.499,-1.287,-0.707,-0.235,0.006,0.122
-0.173,-0.02,0.153,0.096,-0.162,0.066,-0.453,-1.097,-0.627,-0.245,-0.035,0.065
-0.17,-0.075,0.095,0.122,-0.132,0.01,-0.37,-0.915,-0.56,-0.23,-0.075,0.015
-0.167,-0.135,0.031,0.151,-0.098,-0.051,-0.305,-0.767,-0.497,-0.218,-0.115,-0.003
-0.159,-0.153,0.006,0.156,-0.083,-0.073,-0.243,-0.612,-0.422,-0.206,-0.12,-0.013
-0.151,-0.149,0.002,0.15,-0.077,-0.073,-0.193,-0.484,-0.355,-0.196,-0.112,-0.028
-0.142,-0.149,-0.007,0.146,-0.067,-0.078,-0.156,-0.4,-0.301,-0.187,-0.109,-0.044
-0.13,-0.145,-0.015,0.138,-0.057,-0.08,-0.12,-0.325,-0.245,-0.175,-0.105,-0.055
-0.122,-0.145,-0.023,0.134,-0.049,-0.084,-0.091,-0.268,-0.212,-0.163,-0.101,-0.063
-0.115,-0.146,-0.031,0.131,-0.042,-0.088,-0.066,-0.212,-0.181,-0.151,-0.097,-0.069
-0.103,-0.143,-0.04,0.124,-0.031,-0.091,-0.045,-0.16,-0.152,-0.141,-0.093,-0.07
-0.094,-0.14,-0.045,0.117,-0.024,-0.092,-0.025,-0.113,-0.129,-0.133,-0.089,-0.07
-0.09,-0.14,-0.05,0.115,-0.02,-0.095,-0.005,-0.07,-0.11,-0.125,-0.085,-0.07
-0.069,-0.14,-0.071,0.105,0.001,-0.105,0.004,-0.052,-0.101,-0.117,-0.085,-0.07
-0.063,-0.14,-0.078,0.102,0.007,-0.109,0.008,-0.042,-0.098,-0.112,-0.086,-0.07
-0.049,-0.138,-0.089,0.094,0.02,-0.114,0.012,-0.027,-0.091,-0.107,-0.083,-0.07
-0.027,-0.135,-0.108,0.081,0.041,-0.121,0.017,-0.011,-0.084,-0.098,-0.08,-0.07
-0.025,-0.135,-0.11,0.08,0.043,-0.122,0.025,0.0,-0.08,-0.09,-0.08,-0.07
-0.022,-0.135,-0.114,0.079,0.046,-0.124,0.03,0.004,-0.072,-0.085,-0.08,-0.07
-0.013,-0.132,-0.119,0.073,0.053,-0.125,0.031,0.008,-0.067,-0.088,-0.081,-0.07
-0.01,-0.13,-0.119,0.07,0.054,-0.124,0.043,0.012,-0.063,-0.091,-0.078,-0.07
-0.008,-0.13,-0.122,0.069,0.057,-0.126,0.057,0.015,-0.06,-0.09,-0.075,-0.07
0.0,-0.13,-0.13,0.065,0.065,-0.13,0.06,0.015,-0.06,-0.09,-0.075,-0.07
-0.012,-0.13,-0.119,0.072,0.053,-0.124,0.06,0.019,-0.06,-0.09,-0.075,-0.07
