I,II,III,aVR,aVL,aVF
-0.04,-0.575,-0.535,0.308,0.248,-0.555
-0.04,-0.575,-0.535,0.308,0.248,-0.555
-0.04,-0.575,-0.535,0.308,0.248,-0.555
-0.04,-0.575,-0.535,0.308,0.248,-0.555
-0.04,-0.575,-0.535,0.308,0.248,-0.555
-0.04,-0.575,-0.535,0.308,0.248,-0.555
-0.04,-0.575,-0.535,0.308,0.248,-0.555
-0.04,-0.575,-0.536,0.308,0.248,-0.555
-0.041,-0.574,-0.533,0.308,0.246,-0.554
-0.047,-0.576,-0.53,0.312,0.242,-0.552
-0.055,-0.585,-0.53,0.32,0.238,-0.557
-0.059,-0.59,-0.53,0.324,0.236,-0.56
-0.063,-0.59,-0.527,0.327,0.232,-0.558
-0.066,-0.59,-0.524,0.328,0.229,-0.557
-0.065,-0.59,-0.525,0.328,0.23,-0.557
-0.065,-0.59,-0.525,0.328,0.23,-0.557
-0.069,-0.59,-0.521,0.33,0.226,-0.555
-0.071,-0.59,-0.519,0.33,0.224,-0.555
-0.07,-0.59,-0.52,0.33,0.225,-0.555
-0.071,-0.59,-0.519,0.33,0.224,-0.555
-0.075,-0.59,-0.515,0.333,0.22,-0.552
-0.079,-0.59,-0.511,0.335,0.216,-0.55
-0.083,-0.59,-0.507,0.337,0.212,-0.548
-0.087,-0.59,-0.503,0.339,0.208,-0.546
-0.091,-0.59,-0.499,0.34,0.204,-0.545
-0.095,-0.59,-0.495,0.343,0.2,-0.542
-0.098,-0.59,-0.492,0.345,0.197,-0.54
-0.073,-0.59,-0.517,0.332,0.222,-0.553
-0.056,-0.59,-0.534,0.323,0.239,-0.562
-0.061,-0.59,-0.529,0.325,0.234,-0.56
-0.06,-0.59,-0.53,0.325,0.235,-0.56
-0.06,-0.59,-0.53,0.325,0.235,-0.56
-0.06,-0.59,-0.53,0.325,0.235,-0.56
-0.06,-0.59,-0.53,0.325,0.235,-0.56
-0.06,-0.59,-0.53,0.325,0.235,-0.56
-0.06,-0.59,-0.53,0.325,0.235,-0.56
-0.06,-0.59,-0.53,0.325,0.235,-0.56
-0.061,-0.591,-0.53,0.326,0.234,-0.56
-0.057,-0.588,-0.531,0.322,0.237,-0.56
-0.066,-0.594,-0.528,0.33,0.231,-0.561
-0.09,-0.62,-0.53,0.355,0.22,-0.575
-0.066,-0.639,-0.573,0.352,0.254,-0.606
-0.06,-0.636,-0.576,0.348,0.258,-0.605
-0.067,-0.625,-0.559,0.347,0.246,-0.592
-0.065,-0.618,-0.553,0.342,0.244,-0.585
-0.065,-0.61,-0.545,0.338,0.24,-0.577
-0.065,-0.602,-0.537,0.334,0.236,-0.569
-0.065,-0.594,-0.529,0.33,0.232,-0.561
-0.066,-0.586,-0.52,0.326,0.227,-0.552
-0.064,-0.579,-0.515,0.322,0.226,-0.546
-0.055,-0.575,-0.52,0.315,0.233,-0.547
-0.05,-0.571,-0.52,0.31,0.235,-0.545
-0.05,-0.57,-0.52,0.31,0.235,-0.545
-0.049,-0.569,-0.52,0.309,0.236,-0.544
-0.044,-0.564,-0.52,0.304,0.239,-0.541
-0.04,-0.56,-0.52,0.3,0.24,-0.54
-0.04,-0.56,-0.52,0.3,0.24,-0.54
-0.037,-0.557,-0.52,0.297,0.242,-0.538
-0.034,-0.554,-0.52,0.294,0.243,-0.537
-0.035,-0.555,-0.52,0.295,0.243,-0.537
-0.035,-0.555,-0.52,0.295,0.243,-0.537
-0.035,-0.555,-0.52,0.295,0.243,-0.537
-0.038,-0.555,-0.517,0.297,0.24,-0.536
-0.041,-0.555,-0.514,0.298,0.237,-0.535
-0.04,-0.555,-0.515,0.298,0.238,-0.535
-0.04,-0.555,-0.515,0.298,0.238,-0.535
-0.04,-0.551,-0.511,0.295,0.236,-0.531
-0.04,-0.55,-0.509,0.295,0.235,-0.529
-0.04,-0.55,-0.511,0.295,0.236,-0.53
-0.041,-0.55,-0.509,0.295,0.234,-0.529
-0.045,-0.55,-0.505,0.298,0.23,-0.527
-0.045,-0.55,-0.505,0.298,0.23,-0.527
-0.044,-0.55,-0.506,0.298,0.231,-0.527
-0.047,-0.55,-0.503,0.299,0.228,-0.526
-0.05,-0.549,-0.5,0.299,0.225,-0.524
-0.045,-0.545,-0.5,0.295,0.228,-0.522
-0.044,-0.545,-0.5,0.295,0.229,-0.522
-0.048,-0.545,-0.497,0.297,0.225,-0.521
-0.051,-0.545,-0.494,0.298,0.222,-0.52
-0.05,-0.545,-0.495,0.298,0.223,-0.52
-0.05,-0.545,-0.495,0.298,0.223,-0.52
-0.054,-0.545,-0.491,0.3,0.219,-0.518
-0.055,-0.545,-0.489,0.3,0.218,-0.517
-0.055,-0.546,-0.491,0.3,0.218,-0.518
-0.055,-0.544,-0.489,0.299,0.218,-0.516
-0.05,-0.535,-0.485,0.293,0.218,-0.51
-0.042,-0.527,-0.485,0.285,0.222,-0.506
-0.034,-0.519,-0.485,0.277,0.226,-0.502
-0.026,-0.511,-0.485,0.269,0.23,-0.498
-0.019,-0.503,-0.484,0.261,0.233,-0.494
-0.015,-0.495,-0.48,0.255,0.233,-0.487
-0.011,-0.487,-0.475,0.249,0.233,-0.481
-0.006,-0.481,-0.475,0.244,0.235,-0.478
-0.007,-0.48,-0.473,0.243,0.233,-0.476
-0.01,-0.48,-0.47,0.245,0.23,-0.475
-0.01,-0.48,-0.47,0.245,0.23,-0.475
-0.014,-0.48,-0.466,0.247,0.226,-0.473
-0.019,-0.48,-0.461,0.25,0.221,-0.47
-0.02,-0.48,-0.46,0.25,0.22,-0.47
-0.021,-0.48,-0.459,0.251,0.219,-0.47
-0.025,-0.48,-0.455,0.253,0.215,-0.467
-0.021,-0.476,-0.454,0.249,0.217,-0.465
-0.016,-0.475,-0.458,0.246,0.221,-0.466
-0.015,-0.475,-0.461,0.245,0.224,-0.467
-0.015,-0.475,-0.46,0.245,0.223,-0.467
-0.015,-0.475,-0.46,0.245,0.223,-0.467
-0.011,-0.475,-0.464,0.243,0.227,-0.47
-0.01,-0.475,-0.465,0.243,0.228,-0.47
-0.01,-0.475,-0.465,0.243,0.228,-0.47
-0.01,-0.474,-0.464,0.242,0.228,-0.469
-0.01,-0.47,-0.46,0.24,0.225,-0.465
-0.01,-0.47,-0.46,0.24,0.225,-0.465
-0.009,-0.47,-0.461,0.24,0.226,-0.465
-0.012,-0.47,-0.458,0.241,0.223,-0.464
-0.016,-0.47,-0.455,0.243,0.22,-0.462
-0.015,-0.47,-0.455,0.243,0.22,-0.462
-0.014,-0.47,-0.455,0.243,0.221,-0.462
-0.019,-0.471,-0.452,0.245,0.217,-0.461
-0.019,-0.468,-0.449,0.244,0.215,-0.459
-0.023,-0.473,-0.45,0.248,0.214,-0.462
-0.04,-0.49,-0.45,0.265,0.205,-0.47
-0.042,-0.491,-0.45,0.267,0.204,-0.471
-0.036,-0.487,-0.451,0.262,0.207,-0.469
-0.052,-0.499,-0.447,0.276,0.198,-0.473
-0.062,-0.518,-0.456,0.29,0.197,-0.486
-0.035,-0.52,-0.485,0.278,0.225,-0.502
-0.037,-0.519,-0.482,0.278,0.223,-0.501
-0.047,-0.526,-0.479,0.286,0.216,-0.502
-0.052,-0.533,-0.48,0.292,0.214,-0.506
-0.056,-0.536,-0.48,0.296,0.212,-0.508
-0.06,-0.54,-0.48,0.3,0.21,-0.51
-0.061,-0.54,-0.479,0.3,0.209,-0.51
-0.059,-0.543,-0.484,0.301,0.213,-0.513
-0.079,-0.545,-0.466,0.312,0.194,-0.505
-0.084,-0.546,-0.461,0.316,0.189,-0.503
-0.045,-0.55,-0.505,0.298,0.23,-0.527
-0.048,-0.551,-0.503,0.299,0.228,-0.527
-0.045,-0.544,-0.498,0.295,0.227,-0.521
-0.023,-0.523,-0.5,0.273,0.239,-0.511
-0.028,-0.528,-0.5,0.278,0.236,-0.514
-0.07,-0.57,-0.5,0.32,0.215,-0.535
-0.069,-0.565,-0.496,0.317,0.214,-0.53
-0.058,-0.552,-0.495,0.305,0.218,-0.523
-0.053,-0.548,-0.495,0.301,0.221,-0.521
-0.048,-0.543,-0.495,0.296,0.224,-0.519
-0.04,-0.535,-0.495,0.288,0.228,-0.515
-0.031,-0.527,-0.495,0.279,0.233,-0.511
-0.03,-0.522,-0.492,0.276,0.231,-0.507
-0.028,-0.518,-0.489,0.273,0.231,-0.503
-0.024,-0.515,-0.49,0.269,0.233,-0.502
-0.025,-0.515,-0.49,0.27,0.233,-0.502
-0.026,-0.515,-0.489,0.271,0.232,-0.502
-0.019,-0.512,-0.493,0.266,0.237,-0.503
-0.029,-0.508,-0.479,0.269,0.225,-0.494
-0.029,-0.512,-0.483,0.271,0.227,-0.497
0.02,-0.51,-0.53,0.245,0.275,-0.52
0.055,-0.462,-0.517,0.204,0.286,-0.49
0.074,-0.422,-0.496,0.174,0.285,-0.458
0.132,-0.351,-0.483,0.11,0.308,-0.417
0.202,-0.235,-0.437,0.017,0.32,-0.336
0.235,-0.09,-0.325,-0.072,0.28,-0.207
0.302,0.123,-0.179,-0.212,0.24,-0.028
0.365,0.31,-0.055,-0.338,0.21,0.127
0.412,0.486,0.074,-0.45,0.169,0.28
0.429,0.651,0.221,-0.541,0.103,0.436
0.39,0.785,0.395,-0.588,-0.003,0.59
0.317,0.944,0.627,-0.631,-0.155,0.785
0.295,0.978,0.682,-0.637,-0.194,0.829
0.252,0.833,0.582,-0.542,-0.166,0.707
0.148,0.63,0.481,-0.389,-0.167,0.555
0.055,0.49,0.435,-0.273,-0.19,0.462
-0.012,0.372,0.384,-0.18,-0.198,0.378
-0.094,0.232,0.326,-0.069,-0.21,0.279
-0.198,0.08,0.278,0.059,-0.238,0.178
-0.243,-0.038,0.205,0.141,-0.224,0.083
-0.19,-0.11,0.08,0.15,-0.135,-0.015
-0.172,-0.199,-0.027,0.185,-0.072,-0.113
-0.188,-0.302,-0.113,0.246,-0.037,-0.208
-0.146,-0.343,-0.197,0.245,0.026,-0.27
-0.109,-0.354,-0.244,0.231,0.068,-0.298
-0.165,-0.405,-0.24,0.285,0.038,-0.322
-0.148,-0.412,-0.264,0.28,0.058,-0.338
-0.132,-0.409,-0.277,0.271,0.072,-0.342
-0.137,-0.41,-0.273,0.274,0.068,-0.341
-0.123,-0.41,-0.287,0.266,0.082,-0.349
-0.09,-0.41,-0.32,0.25,0.115,-0.365
-0.088,-0.41,-0.322,0.249,0.117,-0.366
-0.095,-0.413,-0.318,0.254,0.112,-0.365
-0.09,-0.416,-0.325,0.253,0.118,-0.37
-0.077,-0.415,-0.338,0.247,0.131,-0.376
-0.07,-0.415,-0.345,0.243,0.138,-0.38
-0.066,-0.416,-0.35,0.241,0.142,-0.382
-0.063,-0.411,-0.348,0.237,0.143,-0.379
-0.071,-0.428,-0.357,0.25,0.143,-0.392
-0.081,-0.454,-0.373,0.267,0.146,-0.413
-0.075,-0.455,-0.38,0.265,0.153,-0.417
-0.07,-0.455,-0.385,0.263,0.158,-0.42
-0.073,-0.455,-0.382,0.264,0.155,-0.418
-0.075,-0.455,-0.38,0.265,0.153,-0.417
-0.075,-0.455,-0.379,0.265,0.152,-0.417
-0.08,-0.455,-0.375,0.268,0.148,-0.415
-0.085,-0.459,-0.375,0.272,0.145,-0.417
-0.085,-0.46,-0.376,0.273,0.145,-0.417
-0.087,-0.46,-0.373,0.274,0.143,-0.416
-0.09,-0.46,-0.37,0.275,0.14,-0.415
-0.09,-0.46,-0.37,0.275,0.14,-0.415
-0.09,-0.46,-0.37,0.275,0.14,-0.415
-0.09,-0.457,-0.367,0.274,0.139,-0.412
-0.091,-0.455,-0.364,0.273,0.137,-0.41
-0.089,-0.454,-0.365,0.272,0.139,-0.41
-0.085,-0.45,-0.365,0.268,0.14,-0.407
-0.09,-0.45,-0.361,0.27,0.136,-0.405
-0.087,-0.447,-0.36,0.267,0.137,-0.403
-0.086,-0.445,-0.359,0.266,0.137,-0.401
-0.081,-0.444,-0.363,0.263,0.141,-0.403
-0.06,-0.435,-0.375,0.248,0.158,-0.405
-0.055,-0.427,-0.372,0.241,0.159,-0.399
-0.053,-0.419,-0.367,0.236,0.158,-0.393
-0.048,-0.411,-0.363,0.23,0.158,-0.387
-0.044,-0.403,-0.359,0.224,0.158,-0.381
-0.04,-0.395,-0.355,0.218,0.158,-0.375
-0.034,-0.385,-0.351,0.21,0.159,-0.367
-0.044,-0.395,-0.35,0.219,0.153,-0.372
-0.05,-0.398,-0.348,0.225,0.149,-0.373
-0.043,-0.388,-0.345,0.216,0.151,-0.366
-0.04,-0.385,-0.345,0.213,0.153,-0.365
-0.041,-0.382,-0.341,0.211,0.15,-0.361
-0.034,-0.374,-0.34,0.204,0.153,-0.357
-0.029,-0.368,-0.338,0.199,0.155,-0.353
-0.029,-0.364,-0.335,0.197,0.153,-0.349
-0.025,-0.36,-0.335,0.193,0.155,-0.347
-0.026,-0.356,-0.331,0.191,0.153,-0.343
-0.022,-0.352,-0.33,0.187,0.155,-0.34
-0.037,-0.365,-0.328,0.202,0.146,-0.346
-0.056,-0.381,-0.325,0.219,0.134,-0.352
-0.045,-0.37,-0.325,0.208,0.14,-0.347
-0.045,-0.362,-0.317,0.204,0.136,-0.339
-0.043,-0.354,-0.311,0.199,0.134,-0.333
-0.037,-0.346,-0.309,0.192,0.136,-0.327
-0.035,-0.338,-0.303,0.187,0.134,-0.32
-0.035,-0.33,-0.295,0.183,0.13,-0.312
-0.035,-0.326,-0.291,0.18,0.128,-0.308
-0.035,-0.322,-0.287,0.179,0.126,-0.304
-0.035,-0.318,-0.283,0.177,0.124,-0.3
-0.035,-0.315,-0.28,0.175,0.123,-0.297
-0.035,-0.315,-0.28,0.175,0.123,-0.297
-0.035,-0.311,-0.276,0.173,0.12,-0.293
-0.035,-0.31,-0.275,0.173,0.12,-0.292
-0.035,-0.309,-0.273,0.172,0.119,-0.29
-0.034,-0.304,-0.269,0.169,0.118,-0.286
-0.03,-0.3,-0.27,0.165,0.12,-0.285
-0.03,-0.3,-0.271,0.165,0.12,-0.285
-0.03,-0.297,-0.267,0.164,0.119,-0.282
-0.031,-0.296,-0.265,0.164,0.118,-0.28
-0.029,-0.293,-0.264,0.161,0.118,-0.279
-0.02,-0.28,-0.26,0.15,0.12,-0.27
-0.012,-0.272,-0.26,0.142,0.124,-0.266
-0.004,-0.261,-0.257,0.133,0.127,-0.259
0.003,-0.251,-0.254,0.124,0.129,-0.253
0.013,-0.242,-0.256,0.115,0.135,-0.249
0.025,-0.23,-0.255,0.103,0.14,-0.242
0.021,-0.222,-0.243,0.101,0.132,-0.233
0.022,-0.211,-0.233,0.095,0.128,-0.222
0.028,-0.199,-0.227,0.086,0.128,-0.212
0.03,-0.187,-0.217,0.079,0.124,-0.202
0.03,-0.175,-0.205,0.073,0.118,-0.19
0.034,-0.163,-0.197,0.065,0.115,-0.179
0.038,-0.151,-0.189,0.057,0.114,-0.17
0.042,-0.139,-0.181,0.049,0.112,-0.16
0.046,-0.127,-0.173,0.041,0.11,-0.149
0.05,-0.115,-0.165,0.033,0.108,-0.14
0.05,-0.107,-0.157,0.029,0.104,-0.132
0.05,-0.099,-0.149,0.025,0.1,-0.124
0.05,-0.091,-0.141,0.021,0.096,-0.116
0.05,-0.083,-0.133,0.017,0.092,-0.108
0.05,-0.075,-0.125,0.013,0.088,-0.1
0.048,-0.069,-0.117,0.011,0.083,-0.093
0.067,-0.046,-0.112,-0.01,0.09,-0.079
0.09,-0.016,-0.106,-0.037,0.098,-0.061
0.102,0.003,-0.099,-0.053,0.1,-0.048
0.105,0.01,-0.095,-0.057,0.1,-0.042
0.1,0.014,-0.087,-0.056,0.093,-0.037
0.103,0.021,-0.082,-0.062,0.092,-0.03
0.104,0.027,-0.077,-0.065,0.09,-0.024
0.1,0.032,-0.068,-0.066,0.084,-0.018
0.1,0.04,-0.06,-0.07,0.08,-0.01
0.099,0.043,-0.056,-0.07,0.077,-0.007
0.11,0.06,-0.05,-0.084,0.079,0.005
0.115,0.075,-0.04,-0.095,0.078,0.017
0.117,0.083,-0.034,-0.1,0.075,0.024
0.13,0.1,-0.03,-0.115,0.08,0.035
0.13,0.105,-0.026,-0.117,0.078,0.04
0.131,0.106,-0.025,-0.118,0.077,0.041
0.127,0.102,-0.025,-0.114,0.076,0.038
0.136,0.111,-0.025,-0.123,0.08,0.043
0.155,0.13,-0.025,-0.142,0.09,0.052
0.132,0.106,-0.025,-0.118,0.078,0.04
0.153,0.131,-0.022,-0.142,0.087,0.055
0.172,0.153,-0.019,-0.163,0.096,0.067
0.156,0.136,-0.02,-0.146,0.088,0.058
0.15,0.13,-0.02,-0.14,0.085,0.055
0.146,0.126,-0.02,-0.136,0.083,0.053
0.14,0.12,-0.02,-0.13,0.079,0.049
0.131,0.11,-0.02,-0.12,0.075,0.045
0.133,0.104,-0.029,-0.118,0.08,0.038
0.145,0.1,-0.045,-0.122,0.095,0.027
0.134,0.088,-0.046,-0.111,0.09,0.021
0.121,0.076,-0.044,-0.098,0.082,0.015
0.109,0.063,-0.045,-0.085,0.077,0.009
0.098,0.053,-0.045,-0.075,0.071,0.005
0.09,0.045,-0.045,-0.067,0.067,0.0
0.076,0.018,-0.059,-0.047,0.067,-0.02
0.078,-0.01,-0.088,-0.034,0.083,-0.048
0.06,-0.028,-0.089,-0.016,0.074,-0.058
0.04,-0.045,-0.084,0.002,0.062,-0.064
0.055,-0.065,-0.12,0.005,0.088,-0.092
0.044,-0.082,-0.127,0.019,0.086,-0.104
0.035,-0.087,-0.122,0.027,0.079,-0.104
0.053,-0.082,-0.135,0.015,0.095,-0.109
0.062,-0.089,-0.151,0.014,0.107,-0.12
0.035,-0.11,-0.145,0.038,0.09,-0.127
0.031,-0.114,-0.145,0.042,0.088,-0.129
0.02,-0.123,-0.143,0.051,0.082,-0.133
0.0,-0.137,-0.136,0.068,0.068,-0.136
-0.001,-0.147,-0.146,0.074,0.073,-0.146
0.02,-0.155,-0.175,0.068,0.098,-0.165
0.012,-0.16,-0.172,0.074,0.092,-0.166
0.009,-0.16,-0.169,0.075,0.09,-0.164
-0.009,-0.177,-0.168,0.093,0.08,-0.173
-0.032,-0.197,-0.165,0.115,0.067,-0.181
-0.025,-0.19,-0.165,0.108,0.07,-0.177
-0.028,-0.19,-0.161,0.109,0.066,-0.175
-0.031,-0.19,-0.159,0.111,0.064,-0.174
-0.027,-0.191,-0.163,0.109,0.068,-0.177
-0.016,-0.188,-0.172,0.102,0.078,-0.18
-0.015,-0.19,-0.175,0.103,0.08,-0.182
-0.05,-0.223,-0.173,0.137,0.061,-0.197
-0.046,-0.237,-0.191,0.141,0.073,-0.213
-0.034,-0.234,-0.201,0.134,0.084,-0.217
-0.041,-0.235,-0.194,0.139,0.077,-0.215
-0.04,-0.235,-0.195,0.138,0.078,-0.215
-0.04,-0.235,-0.195,0.138,0.078,-0.215
-0.04,-0.235,-0.195,0.138,0.078,-0.215
-0.04,-0.235,-0.195,0.138,0.078,-0.215
-0.041,-0.235,-0.194,0.138,0.077,-0.214
-0.045,-0.235,-0.19,0.14,0.073,-0.212
-0.045,-0.235,-0.19,0.14,0.073,-0.212
-0.045,-0.235,-0.19,0.14,0.073,-0.212
-0.045,-0.235,-0.191,0.14,0.074,-0.213
-0.045,-0.234,-0.189,0.14,0.072,-0.211
-0.04,-0.23,-0.19,0.135,0.075,-0.21
-0.014,-0.23,-0.215,0.122,0.101,-0.223
-0.011,-0.23,-0.22,0.121,0.104,-0.224
-0.017,-0.23,-0.213,0.124,0.098,-0.221
-0.014,-0.23,-0.216,0.123,0.101,-0.222
-0.015,-0.23,-0.215,0.123,0.1,-0.222
-0.02,-0.231,-0.211,0.126,0.095,-0.221
-0.013,-0.223,-0.209,0.118,0.098,-0.216
-0.028,-0.239,-0.211,0.133,0.092,-0.224
-0.053,-0.262,-0.209,0.157,0.078,-0.235
-0.045,-0.25,-0.205,0.148,0.08,-0.227
-0.041,-0.245,-0.205,0.144,0.082,-0.225
-0.037,-0.242,-0.206,0.14,0.085,-0.224
-0.035,-0.238,-0.203,0.137,0.084,-0.22
-0.035,-0.234,-0.2,0.134,0.083,-0.216
-0.03,-0.23,-0.2,0.13,0.085,-0.215
-0.025,-0.225,-0.2,0.125,0.088,-0.212
-0.031,-0.228,-0.197,0.13,0.083,-0.212
-0.036,-0.23,-0.194,0.134,0.079,-0.212
-0.036,-0.231,-0.195,0.134,0.08,-0.213
-0.04,-0.235,-0.195,0.138,0.078,-0.215
-0.04,-0.235,-0.195,0.138,0.078,-0.215
-0.042,-0.238,-0.196,0.141,0.077,-0.217
-0.048,-0.24,-0.192,0.144,0.072,-0.215
-0.04,-0.241,-0.202,0.141,0.081,-0.221
-0.015,-0.25,-0.235,0.133,0.11,-0.242
-0.017,-0.253,-0.237,0.136,0.11,-0.245
-0.03,-0.264,-0.234,0.147,0.102,-0.249
-0.038,-0.273,-0.235,0.156,0.099,-0.254
-0.04,-0.275,-0.235,0.158,0.098,-0.255
-0.04,-0.275,-0.235,0.158,0.098,-0.255
-0.04,-0.275,-0.235,0.158,0.098,-0.255
-0.039,-0.274,-0.235,0.157,0.098,-0.255
-0.042,-0.277,-0.235,0.16,0.097,-0.256
-0.045,-0.28,-0.235,0.163,0.095,-0.257
-0.045,-0.28,-0.235,0.163,0.095,-0.257
-0.045,-0.28,-0.235,0.163,0.095,-0.257
-0.045,-0.28,-0.235,0.163,0.095,-0.257
-0.045,-0.28,-0.235,0.163,0.095,-0.257
-0.046,-0.281,-0.235,0.164,0.095,-0.258
-0.05,-0.285,-0.235,0.168,0.093,-0.26
-0.051,-0.285,-0.235,0.168,0.092,-0.26
-0.048,-0.285,-0.237,0.167,0.095,-0.261
-0.057,-0.285,-0.228,0.171,0.086,-0.257
-0.055,-0.285,-0.23,0.171,0.088,-0.257
-0.025,-0.285,-0.26,0.155,0.118,-0.272
-0.019,-0.281,-0.262,0.15,0.121,-0.271
-0.021,-0.28,-0.259,0.15,0.119,-0.269
-0.019,-0.28,-0.261,0.15,0.121,-0.27
-0.021,-0.28,-0.259,0.15,0.119,-0.269
-0.02,-0.28,-0.26,0.15,0.12,-0.27
-0.003,-0.28,-0.277,0.142,0.137,-0.279
0.002,-0.277,-0.279,0.138,0.14,-0.278
-0.001,-0.274,-0.274,0.138,0.137,-0.274
0.0,-0.275,-0.275,0.138,0.138,-0.275
0.0,-0.275,-0.275,0.138,0.138,-0.275
-0.001,-0.275,-0.275,0.139,0.138,-0.275
0.003,-0.273,-0.276,0.136,0.14,-0.274
-0.01,-0.283,-0.273,0.147,0.132,-0.278
-0.027,-0.296,-0.27,0.161,0.122,-0.282
-0.02,-0.29,-0.27,0.155,0.125,-0.28
-0.017,-0.287,-0.27,0.152,0.126,-0.278
-0.037,-0.308,-0.271,0.173,0.117,-0.29
-0.058,-0.325,-0.267,0.192,0.105,-0.296
-0.049,-0.325,-0.276,0.187,0.114,-0.3
-0.02,-0.325,-0.305,0.173,0.143,-0.315
-0.022,-0.325,-0.302,0.174,0.141,-0.313
-0.029,-0.328,-0.299,0.179,0.135,-0.313
-0.03,-0.331,-0.3,0.181,0.135,-0.316
-0.03,-0.33,-0.3,0.18,0.135,-0.315
-0.03,-0.33,-0.3,0.18,0.135,-0.315
-0.038,-0.334,-0.296,0.187,0.129,-0.315
-0.041,-0.335,-0.295,0.189,0.127,-0.315
-0.04,-0.335,-0.295,0.188,0.128,-0.315
-0.04,-0.335,-0.295,0.188,0.128,-0.315
-0.04,-0.335,-0.295,0.188,0.128,-0.315
-0.04,-0.331,-0.291,0.185,0.126,-0.311
-0.04,-0.33,-0.29,0.185,0.125,-0.31
-0.04,-0.33,-0.29,0.185,0.125,-0.31
-0.04,-0.33,-0.29,0.185,0.125,-0.31
-0.04,-0.33,-0.29,0.185,0.125,-0.31
-0.04,-0.33,-0.29,0.185,0.125,-0.31
-0.043,-0.33,-0.287,0.187,0.122,-0.308
-0.046,-0.33,-0.284,0.188,0.119,-0.307
-0.045,-0.33,-0.285,0.188,0.12,-0.307
-0.045,-0.33,-0.285,0.188,0.12,-0.307
-0.045,-0.33,-0.285,0.188,0.12,-0.307
-0.048,-0.33,-0.282,0.189,0.117,-0.306
-0.051,-0.33,-0.279,0.19,0.114,-0.305
-0.05,-0.33,-0.28,0.19,0.115,-0.305
-0.05,-0.33,-0.28,0.19,0.115,-0.305
-0.05,-0.33,-0.28,0.19,0.115,-0.305
-0.05,-0.33,-0.28,0.19,0.115,-0.305
-0.048,-0.33,-0.282,0.189,0.117,-0.306
-0.035,-0.33,-0.295,0.182,0.13,-0.313
-0.015,-0.33,-0.315,0.173,0.15,-0.322
-0.018,-0.33,-0.312,0.174,0.147,-0.321
-0.02,-0.33,-0.31,0.175,0.145,-0.32
-0.022,-0.33,-0.308,0.176,0.143,-0.319
-0.025,-0.33,-0.305,0.178,0.14,-0.317
-0.025,-0.33,-0.305,0.178,0.14,-0.317
-0.029,-0.33,-0.301,0.18,0.136,-0.315
-0.031,-0.331,-0.3,0.18,0.135,-0.315
-0.03,-0.328,-0.299,0.179,0.135,-0.313
-0.031,-0.325,-0.294,0.178,0.132,-0.309
-0.035,-0.325,-0.29,0.18,0.128,-0.307
-0.04,-0.325,-0.286,0.183,0.123,-0.305
-0.037,-0.322,-0.285,0.18,0.124,-0.303
-0.036,-0.319,-0.284,0.178,0.124,-0.301
-0.042,-0.32,-0.279,0.181,0.119,-0.299
-0.045,-0.32,-0.275,0.183,0.115,-0.297
-0.041,-0.316,-0.275,0.179,0.118,-0.295
-0.042,-0.315,-0.273,0.178,0.116,-0.293
-0.048,-0.315,-0.267,0.181,0.11,-0.291
-0.05,-0.315,-0.265,0.183,0.108,-0.29
-0.05,-0.315,-0.265,0.183,0.108,-0.29
-0.05,-0.311,-0.261,0.18,0.106,-0.286
-0.05,-0.31,-0.259,0.18,0.105,-0.284
-0.049,-0.31,-0.261,0.18,0.106,-0.285
-0.051,-0.31,-0.259,0.181,0.104,-0.285
-0.055,-0.31,-0.255,0.183,0.1,-0.282
-0.051,-0.306,-0.255,0.179,0.102,-0.28
-0.05,-0.305,-0.255,0.178,0.103,-0.28
-0.05,-0.305,-0.255,0.178,0.103,-0.28
-0.051,-0.305,-0.254,0.178,0.102,-0.279
-0.055,-0.305,-0.25,0.18,0.098,-0.277
-0.056,-0.305,-0.25,0.181,0.098,-0.277
-0.052,-0.302,-0.25,0.177,0.099,-0.276
-0.049,-0.299,-0.25,0.174,0.101,-0.275
-0.051,-0.3,-0.249,0.176,0.099,-0.275
-0.055,-0.3,-0.245,0.178,0.095,-0.272
-0.056,-0.3,-0.245,0.179,0.094,-0.272
-0.051,-0.297,-0.246,0.175,0.098,-0.271
-0.051,-0.294,-0.243,0.173,0.096,-0.269
-0.056,-0.295,-0.24,0.175,0.093,-0.267
-0.055,-0.295,-0.24,0.175,0.093,-0.267
-0.055,-0.295,-0.24,0.175,0.093,-0.267
-0.055,-0.296,-0.241,0.175,0.093,-0.268
-0.055,-0.293,-0.238,0.174,0.092,-0.265
-0.055,-0.29,-0.235,0.173,0.09,-0.262
-0.055,-0.29,-0.235,0.173,0.09,-0.262
-0.055,-0.29,-0.235,0.173,0.09,-0.262
-0.054,-0.29,-0.236,0.172,0.091,-0.262
-0.059,-0.29,-0.232,0.175,0.086,-0.26
-0.066,-0.289,-0.223,0.178,0.079,-0.256
-0.065,-0.285,-0.22,0.175,0.078,-0.252
-0.069,-0.285,-0.216,0.177,0.074,-0.25
-0.073,-0.285,-0.212,0.179,0.07,-0.248
-0.076,-0.285,-0.208,0.181,0.066,-0.246
-0.082,-0.286,-0.204,0.184,0.061,-0.245
-0.085,-0.285,-0.2,0.185,0.058,-0.242
-0.066,-0.27,-0.204,0.168,0.07,-0.237
-0.047,-0.253,-0.205,0.151,0.08,-0.229
-0.032,-0.237,-0.205,0.135,0.087,-0.221
-0.017,-0.221,-0.205,0.119,0.095,-0.213
-0.005,-0.21,-0.205,0.108,0.1,-0.207
0.004,-0.205,-0.209,0.101,0.107,-0.207
0.006,-0.205,-0.21,0.1,0.109,-0.207
0.005,-0.205,-0.21,0.1,0.108,-0.207
0.005,-0.205,-0.21,0.1,0.108,-0.207
0.005,-0.205,-0.21,0.1,0.108,-0.207
0.004,-0.206,-0.21,0.101,0.107,-0.207
0.012,-0.201,-0.213,0.095,0.113,-0.207
-0.003,-0.219,-0.216,0.112,0.106,-0.217
-0.027,-0.242,-0.215,0.135,0.094,-0.228
-0.02,-0.235,-0.215,0.128,0.098,-0.225
-0.02,-0.235,-0.215,0.128,0.098,-0.225
-0.016,-0.232,-0.216,0.125,0.1,-0.224
-0.018,-0.23,-0.211,0.125,0.096,-0.22
-0.026,-0.229,-0.204,0.128,0.089,-0.216
-0.025,-0.225,-0.2,0.125,0.088,-0.212
-0.033,-0.225,-0.192,0.129,0.08,-0.208
-0.039,-0.226,-0.187,0.132,0.075,-0.206
-0.042,-0.223,-0.181,0.133,0.07,-0.202
-0.046,-0.22,-0.173,0.134,0.063,-0.196
-0.05,-0.22,-0.17,0.135,0.06,-0.195
-0.046,-0.216,-0.17,0.131,0.062,-0.192
-0.045,-0.215,-0.17,0.13,0.063,-0.192
-0.043,-0.213,-0.17,0.128,0.064,-0.191
-0.039,-0.209,-0.17,0.124,0.065,-0.19
-0.04,-0.21,-0.17,0.125,0.065,-0.19
-0.041,-0.211,-0.17,0.126,0.064,-0.19
-0.033,-0.204,-0.171,0.119,0.069,-0.188
-0.03,-0.197,-0.167,0.114,0.068,-0.182
-0.037,-0.194,-0.158,0.115,0.061,-0.176
-0.04,-0.19,-0.15,0.115,0.055,-0.17
-0.04,-0.182,-0.142,0.111,0.051,-0.162
-0.043,-0.176,-0.134,0.11,0.046,-0.155
-0.047,-0.173,-0.126,0.11,0.04,-0.15
-0.051,-0.168,-0.118,0.11,0.033,-0.143
-0.045,-0.16,-0.115,0.103,0.035,-0.137
-0.02,-0.152,-0.132,0.086,0.056,-0.142
-0.013,-0.144,-0.131,0.079,0.059,-0.137
-0.016,-0.136,-0.12,0.076,0.052,-0.128
-0.015,-0.128,-0.113,0.072,0.049,-0.12
-0.015,-0.12,-0.105,0.068,0.045,-0.112
-0.014,-0.111,-0.097,0.063,0.042,-0.103
-0.024,-0.112,-0.088,0.069,0.033,-0.1
-0.033,-0.116,-0.083,0.075,0.026,-0.099
-0.037,-0.115,-0.078,0.076,0.021,-0.096
-0.045,-0.115,-0.07,0.08,0.013,-0.092
-0.049,-0.115,-0.066,0.083,0.009,-0.09
-0.052,-0.115,-0.063,0.084,0.006,-0.089
-0.059,-0.115,-0.056,0.087,-0.001,-0.085
-0.066,-0.115,-0.049,0.091,-0.008,-0.082
-0.07,-0.115,-0.045,0.093,-0.012,-0.08
-0.076,-0.115,-0.039,0.095,-0.018,-0.077
-0.064,-0.115,-0.051,0.09,-0.006,-0.082
-0.047,-0.115,-0.068,0.081,0.011,-0.091
-0.03,-0.115,-0.085,0.073,0.028,-0.1
-0.01,-0.115,-0.105,0.063,0.048,-0.11
-0.005,-0.115,-0.11,0.06,0.053,-0.112
-0.005,-0.115,-0.11,0.06,0.053,-0.112
0.01,-0.115,-0.125,0.053,0.068,-0.12
0.027,-0.115,-0.141,0.044,0.084,-0.128
0.015,-0.12,-0.135,0.053,0.075,-0.127
-0.008,-0.138,-0.131,0.073,0.061,-0.134
-0.002,-0.133,-0.13,0.068,0.064,-0.131
0.006,-0.139,-0.146,0.067,0.076,-0.142
-0.012,-0.173,-0.161,0.093,0.075,-0.167
-0.04,-0.195,-0.155,0.118,0.058,-0.175
-0.041,-0.196,-0.155,0.119,0.057,-0.175
-0.039,-0.195,-0.155,0.117,0.059,-0.175
-0.04,-0.195,-0.155,0.118,0.058,-0.175
-0.04,-0.195,-0.155,0.118,0.058,-0.175
-0.04,-0.195,-0.155,0.118,0.058,-0.175
-0.047,-0.198,-0.151,0.123,0.052,-0.174
-0.06,-0.209,-0.15,0.135,0.045,-0.179
-0.068,-0.218,-0.15,0.143,0.042,-0.184
-0.071,-0.221,-0.15,0.146,0.039,-0.186
-0.075,-0.225,-0.15,0.15,0.038,-0.187
-0.071,-0.221,-0.15,0.146,0.04,-0.185
-0.069,-0.22,-0.151,0.145,0.04,-0.185
-0.07,-0.218,-0.148,0.144,0.039,-0.183
-0.07,-0.214,-0.145,0.143,0.038,-0.18
-0.07,-0.215,-0.145,0.143,0.038,-0.18
-0.07,-0.215,-0.145,0.143,0.038,-0.18
-0.067,-0.212,-0.145,0.14,0.039,-0.178
-0.064,-0.209,-0.145,0.137,0.041,-0.177
-0.066,-0.21,-0.144,0.139,0.039,-0.177
-0.07,-0.21,-0.14,0.14,0.035,-0.175
-0.066,-0.206,-0.14,0.136,0.037,-0.172
-0.064,-0.204,-0.14,0.134,0.038,-0.172
-0.066,-0.206,-0.14,0.136,0.038,-0.172
-0.064,-0.204,-0.14,0.134,0.038,-0.172
-0.06,-0.2,-0.14,0.13,0.04,-0.17
-0.06,-0.2,-0.14,0.13,0.04,-0.17
-0.059,-0.199,-0.14,0.13,0.041,-0.169
-0.046,-0.203,-0.156,0.125,0.055,-0.179
-0.016,-0.204,-0.188,0.11,0.087,-0.196
0.015,-0.195,-0.21,0.09,0.113,-0.202
0.02,-0.187,-0.207,0.084,0.114,-0.197
0.022,-0.179,-0.201,0.078,0.112,-0.19
0.027,-0.171,-0.198,0.072,0.113,-0.184
0.032,-0.162,-0.194,0.066,0.113,-0.178
0.035,-0.155,-0.19,0.06,0.113,-0.172
0.031,-0.154,-0.185,0.062,0.108,-0.169
0.069,-0.119,-0.189,0.025,0.129,-0.153
0.112,-0.042,-0.154,-0.035,0.134,-0.097
0.164,0.072,-0.092,-0.117,0.128,-0.01
0.26,0.225,-0.035,-0.242,0.147,0.095
0.321,0.411,0.091,-0.366,0.115,0.251
0.353,0.569,0.216,-0.461,0.068,0.392
0.407,0.731,0.324,-0.569,0.041,0.527
0.456,0.906,0.451,-0.681,0.002,0.678
0.425,1.065,0.64,-0.745,-0.108,0.852
0.338,1.215,0.877,-0.777,-0.27,1.046
0.292,1.221,0.929,-0.757,-0.319,1.075
0.261,1.087,0.826,-0.675,-0.283,0.957
0.195,0.93,0.736,-0.562,-0.271,0.833
0.095,0.815,0.72,-0.455,-0.313,0.767
-0.009,0.696,0.704,-0.344,-0.357,0.7
-0.082,0.572,0.654,-0.246,-0.368,0.613
-0.17,0.431,0.601,-0.131,-0.386,0.516
-0.236,0.295,0.531,-0.03,-0.384,0.413
-0.215,0.195,0.41,0.01,-0.313,0.302
-0.191,0.104,0.295,0.044,-0.244,0.199
-0.162,0.041,0.203,0.061,-0.183,0.121
-0.161,-0.013,0.149,0.087,-0.155,0.067
-0.175,-0.059,0.116,0.116,-0.145,0.028
-0.16,-0.08,0.08,0.12,-0.12,0.0
-0.16,-0.097,0.063,0.128,-0.111,-0.017
-0.156,-0.104,0.052,0.13,-0.104,-0.026
-0.142,-0.105,0.037,0.123,-0.089,-0.034
-0.126,-0.105,0.021,0.115,-0.073,-0.042
-0.115,-0.105,0.01,0.11,-0.062,-0.047
-0.106,-0.105,0.001,0.106,-0.053,-0.051
-0.102,-0.105,-0.003,0.104,-0.049,-0.054
-0.096,-0.105,-0.009,0.101,-0.043,-0.057
-0.088,-0.105,-0.016,0.097,-0.036,-0.06
-0.08,-0.1,-0.02,0.09,-0.03,-0.06
-0.066,-0.094,-0.028,0.08,-0.018,-0.061
-0.074,-0.106,-0.032,0.09,-0.02,-0.069
-0.08,-0.122,-0.041,0.101,-0.019,-0.081
-0.074,-0.133,-0.06,0.104,-0.007,-0.096
-0.07,-0.145,-0.075,0.108,0.003,-0.11
-0.062,-0.141,-0.08,0.102,0.009,-0.111
-0.059,-0.139,-0.08,0.099,0.01,-0.11
-0.06,-0.14,-0.08,0.1,0.01,-0.11
-0.06,-0.14,-0.08,0.1,0.01,-0.11
-0.06,-0.14,-0.08,0.1,0.01,-0.11
-0.06,-0.14,-0.08,0.1,0.01,-0.11
-0.061,-0.141,-0.08,0.101,0.01,-0.11
-0.058,-0.138,-0.08,0.098,0.011,-0.109
-0.055,-0.135,-0.08,0.095,0.013,-0.107
-0.055,-0.135,-0.08,0.095,0.013,-0.107
-0.055,-0.135,-0.08,0.095,0.013,-0.107
-0.055,-0.135,-0.08,0.095,0.013,-0.107
-0.055,-0.135,-0.08,0.095,0.013,-0.107
-0.055,-0.135,-0.08,0.095,0.013,-0.107
-0.055,-0.135,-0.08,0.095,0.013,-0.107
-0.051,-0.131,-0.08,0.091,0.015,-0.105
-0.05,-0.13,-0.08,0.09,0.015,-0.105
-0.05,-0.13,-0.08,0.09,0.015,-0.105
-0.05,-0.13,-0.08,0.09,0.015,-0.105
-0.05,-0.13,-0.08,0.09,0.015,-0.105
-0.05,-0.13,-0.08,0.09,0.015,-0.105
-0.05,-0.131,-0.081,0.091,0.015,-0.106
-0.05,-0.126,-0.077,0.088,0.013,-0.101
-0.05,-0.119,-0.068,0.085,0.009,-0.094
-0.05,-0.115,-0.065,0.083,0.008,-0.09
-0.046,-0.107,-0.061,0.076,0.008,-0.084
-0.045,-0.102,-0.057,0.074,0.006,-0.079
-0.043,-0.096,-0.053,0.07,0.005,-0.074
-0.04,-0.089,-0.049,0.064,0.005,-0.069
-0.04,-0.085,-0.045,0.063,0.003,-0.065
-0.04,-0.081,-0.041,0.06,0.0,-0.061
-0.04,-0.08,-0.04,0.06,0.0,-0.06
-0.04,-0.08,-0.041,0.06,0.0,-0.06
-0.041,-0.08,-0.039,0.06,-0.001,-0.059
-0.045,-0.08,-0.035,0.063,-0.005,-0.057
-0.045,-0.08,-0.035,0.063,-0.005,-0.057
-0.045,-0.08,-0.035,0.063,-0.005,-0.057
-0.045,-0.08,-0.035,0.063,-0.005,-0.057
-0.046,-0.08,-0.034,0.063,-0.006,-0.057
-0.05,-0.08,-0.03,0.065,-0.01,-0.055
-0.05,-0.08,-0.03,0.065,-0.01,-0.055
-0.05,-0.08,-0.03,0.065,-0.01,-0.055
-0.05,-0.08,-0.03,0.065,-0.01,-0.055
-0.051,-0.08,-0.029,0.066,-0.011,-0.055
-0.055,-0.08,-0.025,0.068,-0.015,-0.052
-0.055,-0.08,-0.025,0.068,-0.015,-0.052
-0.055,-0.081,-0.026,0.069,-0.015,-0.053
-0.054,-0.077,-0.023,0.065,-0.015,-0.05
-0.049,-0.068,-0.02,0.059,-0.015,-0.044
-0.045,-0.065,-0.02,0.055,-0.012,-0.042
-0.042,-0.061,-0.02,0.052,-0.011,-0.041
-0.033,-0.054,-0.021,0.044,-0.007,-0.037
-0.029,-0.047,-0.018,0.038,-0.005,-0.033
-0.03,-0.044,-0.015,0.038,-0.007,-0.029
-0.025,-0.04,-0.015,0.033,-0.005,-0.027
-0.013,-0.028,-0.015,0.021,0.001,-0.021
-0.003,-0.018,-0.016,0.011,0.007,-0.017
0.0,-0.011,-0.011,0.006,0.006,-0.011
0.001,-0.003,-0.004,0.002,0.003,-0.003
0.005,0.005,0.0,-0.005,0.002,0.002
0.005,0.013,0.008,-0.009,-0.002,0.01
0.006,0.019,0.013,-0.013,-0.004,0.016
0.016,0.035,0.019,-0.026,-0.001,0.027
0.026,0.053,0.027,-0.04,0.0,0.039
0.025,0.055,0.03,-0.04,-0.003,0.042
0.027,0.054,0.027,-0.041,-0.001,0.041
0.042,0.058,0.016,-0.05,0.013,0.037
0.023,0.06,0.037,-0.042,-0.007,0.048
-0.007,0.061,0.068,-0.027,-0.038,0.064
0.005,0.065,0.06,-0.035,-0.028,0.062
0.004,0.063,0.059,-0.034,-0.028,0.061
0.017,0.078,0.06,-0.048,-0.022,0.069
0.025,0.085,0.06,-0.055,-0.018,0.072
0.019,0.079,0.06,-0.049,-0.02,0.07
0.02,0.08,0.06,-0.05,-0.02,0.07
0.016,0.076,0.06,-0.046,-0.022,0.068
0.012,0.072,0.06,-0.042,-0.025,0.066
0.024,0.084,0.06,-0.054,-0.018,0.071
0.044,0.105,0.06,-0.074,-0.008,0.082
0.065,0.125,0.06,-0.095,0.002,0.092
0.101,0.16,0.058,-0.13,0.021,0.108
0.093,0.165,0.072,-0.129,0.01,0.119
0.075,0.157,0.083,-0.116,-0.004,0.12
0.074,0.153,0.079,-0.114,-0.003,0.115
0.075,0.155,0.08,-0.115,-0.003,0.117
0.095,0.191,0.096,-0.143,0.0,0.143
0.108,0.218,0.11,-0.164,-0.001,0.164
0.111,0.23,0.119,-0.171,-0.004,0.174
0.117,0.236,0.119,-0.176,-0.001,0.177
0.12,0.24,0.12,-0.18,0.0,0.18
0.108,0.252,0.145,-0.18,-0.019,0.198
0.103,0.259,0.156,-0.181,-0.026,0.207
0.107,0.262,0.155,-0.185,-0.024,0.208
0.111,0.266,0.155,-0.189,-0.022,0.211
0.115,0.27,0.155,-0.193,-0.02,0.212
0.113,0.272,0.159,-0.193,-0.024,0.215
0.131,0.291,0.16,-0.211,-0.015,0.226
0.14,0.301,0.16,-0.22,-0.01,0.23
0.135,0.294,0.159,-0.214,-0.013,0.226
0.14,0.295,0.155,-0.218,-0.008,0.225
0.14,0.295,0.155,-0.218,-0.008,0.225
0.14,0.295,0.155,-0.218,-0.008,0.225
0.14,0.295,0.155,-0.218,-0.008,0.225
0.14,0.295,0.155,-0.218,-0.008,0.225
0.14,0.295,0.155,-0.218,-0.008,0.225
0.14,0.295,0.155,-0.218,-0.008,0.225
0.137,0.292,0.155,-0.215,-0.009,0.223
0.135,0.289,0.155,-0.212,-0.01,0.222
0.135,0.29,0.155,-0.213,-0.01,0.222
0.135,0.29,0.155,-0.213,-0.01,0.222
0.136,0.29,0.154,-0.213,-0.009,0.222
0.13,0.29,0.16,-0.211,-0.015,0.225
0.121,0.29,0.169,-0.205,-0.024,0.229
0.123,0.291,0.168,-0.207,-0.023,0.229
0.135,0.29,0.155,-0.213,-0.01,0.222
0.131,0.278,0.147,-0.205,-0.008,0.213
0.131,0.267,0.136,-0.199,-0.003,0.201
0.124,0.249,0.126,-0.186,-0.001,0.188
0.106,0.223,0.117,-0.165,-0.006,0.17
0.095,0.2,0.105,-0.148,-0.005,0.152
0.084,0.18,0.097,-0.133,-0.007,0.138
0.067,0.158,0.091,-0.113,-0.012,0.125
0.056,0.146,0.09,-0.101,-0.017,0.118
0.055,0.144,0.089,-0.1,-0.017,0.116
0.055,0.14,0.085,-0.098,-0.015,0.112
0.051,0.136,0.085,-0.094,-0.018,0.111
0.05,0.131,0.082,-0.091,-0.016,0.107
0.05,0.13,0.08,-0.09,-0.015,0.105
0.05,0.129,0.079,-0.09,-0.015,0.104
0.05,0.125,0.075,-0.088,-0.013,0.1
0.046,0.121,0.075,-0.084,-0.014,0.097
0.042,0.117,0.076,-0.08,-0.017,0.096
0.039,0.112,0.073,-0.076,-0.017,0.093
0.041,0.11,0.07,-0.075,-0.015,0.09
0.04,0.11,0.07,-0.075,-0.015,0.09
0.028,0.094,0.066,-0.062,-0.019,0.08
0.016,0.081,0.065,-0.049,-0.025,0.073
0.004,0.067,0.063,-0.036,-0.03,0.065
-0.008,0.051,0.06,-0.021,-0.034,0.055
-0.02,0.04,0.06,-0.01,-0.04,0.05
-0.024,0.032,0.056,-0.004,-0.04,0.043
-0.028,0.027,0.054,0.0,-0.041,0.04
-0.032,0.023,0.056,0.004,-0.044,0.039
-0.035,0.019,0.054,0.008,-0.045,0.036
-0.035,0.015,0.05,0.01,-0.043,0.032
-0.039,0.011,0.05,0.014,-0.044,0.03
-0.044,0.007,0.051,0.018,-0.048,0.029
-0.045,0.003,0.048,0.021,-0.047,0.025
-0.055,0.0,0.054,0.027,-0.054,0.027
-0.075,0.0,0.075,0.037,-0.075,0.037
-0.072,0.0,0.072,0.036,-0.072,0.036
-0.069,0.001,0.07,0.034,-0.069,0.035
-0.07,-0.002,0.068,0.036,-0.069,0.033
-0.07,-0.005,0.065,0.037,-0.067,0.03
-0.07,-0.005,0.065,0.037,-0.067,0.03
-0.066,-0.005,0.061,0.035,-0.063,0.027
-0.065,-0.004,0.06,0.035,-0.062,0.027
-0.065,-0.007,0.058,0.036,-0.061,0.025
-0.065,-0.01,0.054,0.037,-0.06,0.022
-0.065,-0.01,0.055,0.037,-0.06,0.022
-0.065,-0.01,0.056,0.037,-0.06,0.022
-0.062,-0.01,0.052,0.036,-0.057,0.021
-0.059,-0.01,0.05,0.035,-0.055,0.02
-0.06,-0.011,0.049,0.035,-0.055,0.019
-0.06,-0.015,0.045,0.037,-0.052,0.015
-0.06,-0.015,0.045,0.037,-0.052,0.015
-0.057,-0.015,0.042,0.036,-0.049,0.013
-0.054,-0.015,0.04,0.035,-0.047,0.012
-0.055,-0.016,0.039,0.035,-0.047,0.011
-0.055,-0.02,0.035,0.037,-0.045,0.007
-0.055,-0.02,0.035,0.037,-0.045,0.007
-0.056,-0.02,0.036,0.037,-0.046,0.008
-0.052,-0.02,0.031,0.036,-0.042,0.005
-0.043,-0.019,0.024,0.031,-0.033,0.002
-0.04,-0.02,0.02,0.03,-0.03,0.0
-0.048,-0.036,0.012,0.042,-0.03,-0.012
-0.052,-0.045,0.007,0.048,-0.029,-0.019
-0.047,-0.046,0.001,0.047,-0.024,-0.022
-0.046,-0.052,-0.006,0.049,-0.02,-0.029
-0.05,-0.06,-0.01,0.055,-0.02,-0.035
-0.049,-0.064,-0.015,0.057,-0.017,-0.04
-0.056,-0.068,-0.012,0.063,-0.022,-0.04
-0.044,-0.07,-0.027,0.058,-0.009,-0.048
-0.023,-0.07,-0.047,0.047,0.012,-0.058
-0.03,-0.07,-0.04,0.05,0.005,-0.055
-0.034,-0.069,-0.036,0.052,0.001,-0.052
-0.043,-0.076,-0.032,0.06,-0.006,-0.054
-0.055,-0.083,-0.028,0.069,-0.013,-0.056
-0.061,-0.085,-0.024,0.074,-0.018,-0.055
-0.065,-0.085,-0.02,0.075,-0.022,-0.052
-0.07,-0.085,-0.015,0.078,-0.027,-0.05
-0.068,-0.085,-0.017,0.077,-0.025,-0.051
-0.062,-0.085,-0.023,0.074,-0.019,-0.054
-0.061,-0.085,-0.024,0.073,-0.018,-0.055
-0.065,-0.085,-0.02,0.075,-0.022,-0.052
-0.065,-0.085,-0.02,0.075,-0.022,-0.052
-0.067,-0.085,-0.018,0.076,-0.024,-0.051
-0.073,-0.085,-0.012,0.08,-0.03,-0.048
-0.065,-0.085,-0.02,0.075,-0.022,-0.053
-0.04,-0.085,-0.045,0.063,0.003,-0.065
-0.043,-0.085,-0.042,0.064,0.0,-0.063
-0.046,-0.085,-0.039,0.066,-0.003,-0.061
-0.044,-0.085,-0.041,0.065,-0.001,-0.062
-0.046,-0.085,-0.039,0.066,-0.003,-0.062
-0.05,-0.085,-0.035,0.068,-0.007,-0.06
-0.05,-0.085,-0.035,0.068,-0.007,-0.06
-0.051,-0.085,-0.034,0.068,-0.008,-0.059
-0.046,-0.085,-0.039,0.066,-0.003,-0.062
-0.039,-0.085,-0.046,0.063,0.004,-0.065
-0.035,-0.085,-0.05,0.06,0.008,-0.067
-0.014,-0.085,-0.071,0.05,0.029,-0.078
-0.011,-0.085,-0.074,0.048,0.032,-0.079
-0.016,-0.085,-0.069,0.051,0.027,-0.076
-0.015,-0.085,-0.07,0.05,0.028,-0.077
-0.015,-0.085,-0.07,0.05,0.028,-0.077
-0.019,-0.085,-0.066,0.053,0.024,-0.075
-0.02,-0.085,-0.065,0.053,0.023,-0.075
-0.02,-0.085,-0.065,0.053,0.023,-0.075
-0.019,-0.085,-0.066,0.052,0.024,-0.075
-0.015,-0.085,-0.07,0.05,0.028,-0.077
-0.024,-0.098,-0.074,0.061,0.026,-0.086
-0.056,-0.132,-0.076,0.094,0.011,-0.104
-0.059,-0.147,-0.089,0.103,0.015,-0.117
-0.037,-0.138,-0.101,0.088,0.032,-0.12
-0.04,-0.135,-0.095,0.088,0.028,-0.115
-0.036,-0.131,-0.094,0.084,0.029,-0.112
-0.034,-0.13,-0.096,0.083,0.031,-0.112
-0.036,-0.129,-0.093,0.082,0.029,-0.11
-0.034,-0.124,-0.09,0.079,0.028,-0.106
-0.03,-0.12,-0.09,0.075,0.03,-0.105
-0.03,-0.12,-0.09,0.075,0.03,-0.105
-0.027,-0.117,-0.09,0.072,0.032,-0.104
-0.025,-0.113,-0.088,0.069,0.032,-0.1
-0.024,-0.109,-0.085,0.067,0.03,-0.096
-0.025,-0.11,-0.085,0.068,0.03,-0.097
-0.045,-0.13,-0.085,0.088,0.021,-0.108
-0.058,-0.14,-0.082,0.099,0.012,-0.111
-0.06,-0.14,-0.079,0.1,0.009,-0.11
-0.06,-0.14,-0.08,0.1,0.01,-0.11
-0.06,-0.14,-0.08,0.1,0.01,-0.11
-0.06,-0.14,-0.08,0.1,0.01,-0.11
-0.057,-0.14,-0.083,0.099,0.013,-0.111
-0.054,-0.14,-0.086,0.098,0.016,-0.112
-0.055,-0.14,-0.085,0.098,0.015,-0.112
-0.055,-0.14,-0.085,0.098,0.015,-0.112
-0.055,-0.14,-0.085,0.098,0.015,-0.112
-0.055,-0.14,-0.085,0.098,0.015,-0.112
-0.055,-0.14,-0.085,0.098,0.015,-0.112
-0.055,-0.14,-0.085,0.098,0.015,-0.112
-0.055,-0.14,-0.085,0.098,0.015,-0.112
-0.055,-0.14,-0.085,0.098,0.015,-0.112
-0.055,-0.14,-0.085,0.098,0.015,-0.112
-0.055,-0.14,-0.085,0.098,0.015,-0.112
-0.055,-0.14,-0.085,0.098,0.015,-0.112
-0.055,-0.14,-0.085,0.098,0.015,-0.112
-0.051,-0.14,-0.089,0.095,0.019,-0.115
-0.05,-0.14,-0.09,0.095,0.02,-0.115
-0.05,-0.14,-0.09,0.095,0.02,-0.115
-0.05,-0.14,-0.09,0.095,0.02,-0.115
-0.05,-0.14,-0.09,0.095,0.02,-0.115
-0.05,-0.14,-0.09,0.095,0.02,-0.115
-0.05,-0.14,-0.09,0.095,0.02,-0.115
-0.05,-0.14,-0.09,0.095,0.02,-0.115
-0.051,-0.141,-0.09,0.096,0.02,-0.115
-0.055,-0.145,-0.09,0.1,0.018,-0.117
-0.055,-0.145,-0.09,0.1,0.018,-0.117
-0.055,-0.144,-0.089,0.1,0.018,-0.116
-0.055,-0.147,-0.092,0.101,0.019,-0.119
-0.065,-0.15,-0.086,0.108,0.011,-0.118
-0.075,-0.15,-0.075,0.113,0.0,-0.112
-0.043,-0.15,-0.108,0.097,0.033,-0.129
-0.028,-0.147,-0.119,0.088,0.046,-0.133
-0.031,-0.144,-0.114,0.088,0.042,-0.129
-0.03,-0.145,-0.115,0.088,0.043,-0.13
-0.03,-0.145,-0.115,0.088,0.043,-0.13
-0.03,-0.145,-0.115,0.088,0.043,-0.13
-0.027,-0.142,-0.114,0.085,0.044,-0.128
-0.023,-0.139,-0.117,0.082,0.047,-0.127
-0.028,-0.14,-0.112,0.085,0.042,-0.126
-0.035,-0.14,-0.105,0.088,0.035,-0.122
-0.01,-0.14,-0.13,0.076,0.06,-0.135
-0.004,-0.137,-0.133,0.071,0.064,-0.135
-0.015,-0.134,-0.119,0.075,0.053,-0.127
-0.021,-0.135,-0.114,0.079,0.047,-0.124
-0.025,-0.135,-0.11,0.08,0.043,-0.122
-0.032,-0.135,-0.102,0.084,0.035,-0.118
-0.043,-0.136,-0.093,0.089,0.026,-0.114
-0.044,-0.133,-0.089,0.089,0.023,-0.111
-0.048,-0.13,-0.081,0.09,0.016,-0.105
-0.055,-0.13,-0.075,0.093,0.01,-0.102
-0.017,-0.13,-0.113,0.074,0.048,-0.121
-0.012,-0.131,-0.118,0.071,0.053,-0.124
-0.022,-0.128,-0.106,0.075,0.043,-0.117
-0.021,-0.125,-0.104,0.073,0.042,-0.114
-0.03,-0.125,-0.095,0.078,0.033,-0.11
-0.034,-0.125,-0.091,0.08,0.029,-0.108
-0.041,-0.125,-0.085,0.083,0.023,-0.104
-0.049,-0.125,-0.076,0.087,0.014,-0.1
-0.049,-0.126,-0.077,0.088,0.015,-0.101
-0.04,-0.13,-0.09,0.085,0.025,-0.11
-0.039,-0.134,-0.095,0.087,0.028,-0.115
-0.044,-0.138,-0.094,0.092,0.026,-0.116
-0.043,-0.14,-0.097,0.092,0.027,-0.118
-0.04,-0.14,-0.1,0.09,0.03,-0.12
-0.04,-0.14,-0.1,0.09,0.03,-0.12
-0.036,-0.14,-0.104,0.089,0.034,-0.122
-0.035,-0.14,-0.105,0.088,0.035,-0.122
-0.05,-0.157,-0.107,0.104,0.029,-0.132
-0.067,-0.177,-0.11,0.122,0.022,-0.143
-0.06,-0.17,-0.11,0.115,0.025,-0.14
-0.043,-0.17,-0.127,0.106,0.042,-0.148
-0.038,-0.167,-0.129,0.103,0.046,-0.148
-0.043,-0.165,-0.122,0.104,0.04,-0.143
-0.045,-0.164,-0.119,0.105,0.037,-0.141
-0.045,-0.16,-0.115,0.103,0.035,-0.137
-0.049,-0.16,-0.111,0.105,0.031,-0.136
-0.05,-0.157,-0.107,0.104,0.029,-0.132
-0.051,-0.155,-0.104,0.103,0.027,-0.129
-0.048,-0.154,-0.106,0.102,0.029,-0.13
-0.04,-0.15,-0.11,0.095,0.035,-0.13
-0.044,-0.15,-0.106,0.098,0.031,-0.128
-0.042,-0.147,-0.104,0.095,0.031,-0.125
-0.04,-0.145,-0.105,0.093,0.033,-0.125
-0.039,-0.144,-0.105,0.092,0.033,-0.125
-0.035,-0.14,-0.105,0.088,0.035,-0.122
-0.035,-0.14,-0.105,0.088,0.035,-0.122
-0.036,-0.141,-0.105,0.089,0.034,-0.122
-0.033,-0.138,-0.105,0.086,0.037,-0.121
-0.03,-0.135,-0.104,0.083,0.037,-0.119
-0.035,-0.135,-0.1,0.085,0.033,-0.117
-0.036,-0.135,-0.1,0.086,0.033,-0.117
-0.032,-0.132,-0.1,0.082,0.034,-0.116
-0.03,-0.129,-0.1,0.079,0.035,-0.115
-0.03,-0.13,-0.1,0.08,0.035,-0.115
-0.03,-0.13,-0.1,0.08,0.035,-0.115
-0.03,-0.13,-0.1,0.08,0.035,-0.115
-0.03,-0.131,-0.101,0.08,0.035,-0.115
-0.046,-0.144,-0.098,0.095,0.027,-0.121
-0.061,-0.156,-0.095,0.109,0.017,-0.125
-0.055,-0.15,-0.095,0.103,0.02,-0.122
-0.055,-0.15,-0.095,0.103,0.02,-0.122
-0.052,-0.147,-0.095,0.1,0.022,-0.121
-0.05,-0.145,-0.095,0.098,0.023,-0.12
-0.049,-0.144,-0.095,0.097,0.023,-0.12
-0.045,-0.14,-0.095,0.093,0.025,-0.117
-0.045,-0.14,-0.095,0.093,0.025,-0.117
-0.041,-0.137,-0.096,0.09,0.027,-0.116
-0.042,-0.135,-0.093,0.089,0.026,-0.114
-0.045,-0.134,-0.09,0.089,0.023,-0.111
-0.04,-0.13,-0.09,0.085,0.025,-0.11
-0.04,-0.13,-0.09,0.085,0.025,-0.11
-0.04,-0.127,-0.087,0.084,0.024,-0.107
-0.04,-0.125,-0.085,0.083,0.023,-0.105
-0.039,-0.124,-0.085,0.082,0.023,-0.104
-0.035,-0.12,-0.085,0.078,0.025,-0.102
-0.031,-0.12,-0.089,0.076,0.029,-0.105
-0.027,-0.117,-0.09,0.072,0.032,-0.103
-0.025,-0.115,-0.09,0.07,0.033,-0.102
-0.025,-0.115,-0.09,0.07,0.033,-0.102
-0.02,-0.11,-0.09,0.065,0.035,-0.1
-0.017,-0.107,-0.09,0.062,0.036,-0.099
-0.037,-0.127,-0.09,0.082,0.027,-0.108
-0.044,-0.134,-0.09,0.089,0.024,-0.111
-0.033,-0.123,-0.09,0.078,0.029,-0.106
-0.03,-0.12,-0.09,0.075,0.03,-0.105
-0.022,-0.112,-0.09,0.067,0.034,-0.101
-0.016,-0.107,-0.091,0.061,0.038,-0.099
-0.016,-0.101,-0.085,0.059,0.035,-0.093
-0.021,-0.094,-0.072,0.058,0.026,-0.083
-0.025,-0.09,-0.065,0.058,0.02,-0.077
-0.025,-0.082,-0.057,0.054,0.016,-0.069
-0.025,-0.074,-0.049,0.05,0.012,-0.061
-0.025,-0.066,-0.041,0.046,0.008,-0.053
-0.025,-0.058,-0.033,0.042,0.004,-0.045
-0.025,-0.05,-0.025,0.038,0.0,-0.037
-0.021,-0.042,-0.021,0.031,0.0,-0.031
-0.019,-0.035,-0.017,0.027,-0.001,-0.026
-0.022,-0.037,-0.015,0.031,-0.003,-0.026
-0.025,-0.039,-0.014,0.032,-0.005,-0.026
-0.02,-0.03,-0.01,0.025,-0.005,-0.02
-0.02,-0.026,-0.006,0.023,-0.007,-0.016
-0.019,-0.023,-0.004,0.021,-0.007,-0.013
-0.008,-0.016,-0.008,0.013,0.0,-0.011
0.01,-0.008,-0.018,0.0,0.014,-0.013
0.02,-0.005,-0.025,-0.007,0.023,-0.015
0.012,-0.005,-0.017,-0.003,0.015,-0.011
0.041,0.03,-0.011,-0.035,0.026,0.009
0.053,0.045,-0.009,-0.049,0.031,0.017
0.03,0.027,-0.003,-0.028,0.016,0.011
0.015,0.02,0.005,-0.018,0.005,0.012
-0.001,0.008,0.009,-0.004,-0.005,0.008
-0.016,-0.001,0.015,0.008,-0.015,0.007
-0.022,-0.011,0.011,0.016,-0.016,0.0
-0.019,-0.022,-0.004,0.021,-0.008,-0.013
-0.015,-0.03,-0.015,0.023,0.0,-0.022
-0.015,-0.038,-0.023,0.027,0.004,-0.03
-0.013,-0.046,-0.033,0.03,0.01,-0.04
-0.007,-0.054,-0.047,0.03,0.02,-0.05
-0.006,-0.063,-0.057,0.035,0.025,-0.059
-0.005,-0.07,-0.065,0.038,0.03,-0.067
0.02,-0.066,-0.086,0.023,0.053,-0.075
0.031,-0.064,-0.095,0.017,0.063,-0.079
0.029,-0.066,-0.095,0.019,0.062,-0.081
0.014,-0.081,-0.095,0.034,0.055,-0.088
-0.015,-0.11,-0.095,0.063,0.04,-0.102
-0.021,-0.116,-0.095,0.069,0.038,-0.105
-0.019,-0.114,-0.095,0.067,0.039,-0.105
-0.022,-0.117,-0.095,0.07,0.037,-0.106
-0.025,-0.12,-0.095,0.073,0.035,-0.107
-0.025,-0.12,-0.095,0.073,0.035,-0.107
-0.039,-0.134,-0.095,0.087,0.028,-0.114
-0.069,-0.164,-0.095,0.117,0.013,-0.129
-0.081,-0.176,-0.095,0.129,0.007,-0.135
-0.074,-0.169,-0.095,0.122,0.011,-0.131
-0.075,-0.17,-0.095,0.123,0.01,-0.132
-0.075,-0.17,-0.095,0.123,0.01,-0.132
-0.075,-0.17,-0.095,0.123,0.01,-0.132
-0.075,-0.17,-0.095,0.123,0.01,-0.132
-0.075,-0.17,-0.095,0.123,0.01,-0.132
-0.075,-0.17,-0.095,0.123,0.01,-0.132
-0.074,-0.17,-0.096,0.123,0.011,-0.132
-0.078,-0.17,-0.092,0.124,0.007,-0.13
-0.064,-0.171,-0.107,0.118,0.022,-0.138
-0.042,-0.169,-0.127,0.106,0.042,-0.147
-0.05,-0.17,-0.12,0.11,0.035,-0.145
-0.076,-0.196,-0.119,0.136,0.022,-0.158
-0.078,-0.199,-0.121,0.139,0.021,-0.16
-0.076,-0.194,-0.118,0.135,0.021,-0.156
-0.08,-0.194,-0.115,0.138,0.018,-0.155
-0.075,-0.19,-0.115,0.133,0.02,-0.152
-0.076,-0.19,-0.114,0.134,0.019,-0.152
-0.065,-0.187,-0.121,0.127,0.028,-0.154
-0.059,-0.185,-0.126,0.122,0.034,-0.155
-0.049,-0.184,-0.135,0.117,0.043,-0.159
-0.02,-0.18,-0.16,0.1,0.07,-0.17
-0.015,-0.18,-0.165,0.098,0.075,-0.172
-0.011,-0.176,-0.166,0.094,0.078,-0.171
-0.015,-0.176,-0.162,0.096,0.074,-0.169
-0.009,-0.171,-0.162,0.09,0.077,-0.166
0.035,-0.15,-0.185,0.058,0.11,-0.167
0.071,-0.137,-0.209,0.033,0.14,-0.173
0.109,-0.091,-0.2,-0.009,0.155,-0.145
0.137,-0.047,-0.184,-0.045,0.161,-0.115
0.182,0.021,-0.161,-0.102,0.172,-0.069
0.255,0.165,-0.09,-0.21,0.172,0.037
0.277,0.306,0.029,-0.292,0.123,0.167
0.339,0.478,0.139,-0.409,0.1,0.308
0.44,0.656,0.216,-0.548,0.112,0.436
0.476,0.804,0.328,-0.64,0.074,0.566
0.43,0.95,0.52,-0.69,-0.045,0.735
0.432,1.121,0.689,-0.777,-0.128,0.905
0.356,1.17,0.814,-0.763,-0.229,0.991
0.259,1.089,0.83,-0.674,-0.285,0.959
0.181,0.945,0.764,-0.563,-0.292,0.854
0.075,0.785,0.71,-0.43,-0.318,0.747
0.003,0.656,0.654,-0.33,-0.326,0.655
-0.047,0.555,0.602,-0.254,-0.325,0.578
-0.142,0.417,0.559,-0.137,-0.352,0.488
-0.25,0.261,0.511,-0.006,-0.381,0.386
-0.26,0.165,0.425,0.047,-0.343,0.295
-0.192,0.096,0.288,0.048,-0.24,0.192
-0.181,0.0,0.181,0.09,-0.181,0.09
-0.188,-0.073,0.115,0.13,-0.151,0.021
-0.163,-0.11,0.053,0.137,-0.108,-0.028
-0.145,-0.15,-0.005,0.148,-0.07,-0.077
-0.149,-0.172,-0.023,0.161,-0.062,-0.098
-0.146,-0.179,-0.033,0.163,-0.056,-0.106
-0.133,-0.18,-0.047,0.157,-0.043,-0.113
-0.124,-0.181,-0.057,0.153,-0.033,-0.118
-0.115,-0.185,-0.07,0.15,-0.022,-0.127
-0.09,-0.189,-0.099,0.14,0.004,-0.143
-0.08,-0.194,-0.114,0.137,0.017,-0.154
-0.079,-0.194,-0.115,0.137,0.019,-0.155
-0.074,-0.197,-0.123,0.136,0.025,-0.16
-0.07,-0.21,-0.14,0.14,0.035,-0.175
-0.066,-0.211,-0.145,0.139,0.04,-0.177
-0.065,-0.21,-0.144,0.138,0.04,-0.176
-0.063,-0.21,-0.147,0.137,0.042,-0.178
-0.059,-0.21,-0.15,0.134,0.045,-0.18
-0.06,-0.21,-0.15,0.135,0.045,-0.18
-0.063,-0.218,-0.155,0.141,0.046,-0.186
-0.071,-0.225,-0.153,0.149,0.041,-0.189
-0.06,-0.223,-0.163,0.142,0.052,-0.193
-0.053,-0.229,-0.176,0.141,0.062,-0.202
-0.085,-0.25,-0.165,0.168,0.04,-0.207
-0.102,-0.255,-0.153,0.179,0.026,-0.204
-0.081,-0.255,-0.174,0.169,0.047,-0.214
-0.069,-0.255,-0.186,0.162,0.059,-0.221
-0.076,-0.255,-0.179,0.165,0.052,-0.216
-0.075,-0.255,-0.18,0.165,0.053,-0.217
-0.079,-0.255,-0.176,0.167,0.049,-0.215
-0.08,-0.255,-0.175,0.168,0.048,-0.215
-0.082,-0.255,-0.173,0.169,0.046,-0.214
-0.086,-0.255,-0.169,0.17,0.042,-0.212
-0.085,-0.255,-0.17,0.17,0.043,-0.212
-0.084,-0.255,-0.171,0.169,0.044,-0.212
-0.09,-0.256,-0.167,0.173,0.039,-0.211
-0.085,-0.25,-0.165,0.168,0.04,-0.207
-0.073,-0.237,-0.164,0.156,0.045,-0.2
-0.07,-0.23,-0.16,0.15,0.045,-0.195
-0.062,-0.222,-0.16,0.142,0.049,-0.191
-0.057,-0.214,-0.157,0.136,0.05,-0.185
-0.052,-0.206,-0.154,0.129,0.051,-0.18
-0.043,-0.198,-0.155,0.121,0.056,-0.176
-0.035,-0.19,-0.155,0.113,0.06,-0.172
-0.035,-0.185,-0.151,0.11,0.058,-0.168
-0.035,-0.185,-0.15,0.11,0.058,-0.167
-0.037,-0.185,-0.148,0.111,0.056,-0.166
-0.04,-0.185,-0.145,0.113,0.053,-0.165
-0.04,-0.185,-0.145,0.113,0.053,-0.165
-0.044,-0.185,-0.141,0.115,0.049,-0.163
-0.045,-0.185,-0.139,0.115,0.047,-0.162
-0.045,-0.185,-0.141,0.115,0.048,-0.163
-0.045,-0.184,-0.139,0.115,0.047,-0.161
-0.045,-0.18,-0.135,0.113,0.045,-0.157
-0.045,-0.18,-0.135,0.113,0.045,-0.157
-0.048,-0.18,-0.132,0.114,0.042,-0.156
-0.05,-0.18,-0.13,0.115,0.04,-0.155
-0.051,-0.18,-0.129,0.115,0.039,-0.155
-0.055,-0.18,-0.125,0.118,0.035,-0.152
-0.055,-0.18,-0.125,0.118,0.035,-0.152
-0.055,-0.181,-0.126,0.119,0.035,-0.153
-0.053,-0.175,-0.121,0.115,0.034,-0.148
-0.049,-0.163,-0.113,0.106,0.033,-0.138
-0.045,-0.155,-0.11,0.1,0.033,-0.132
-0.037,-0.143,-0.106,0.09,0.035,-0.124
-0.032,-0.134,-0.102,0.083,0.035,-0.118
-0.026,-0.124,-0.099,0.075,0.037,-0.112
-0.019,-0.112,-0.093,0.066,0.037,-0.103
-0.015,-0.105,-0.09,0.06,0.038,-0.097
0.007,-0.1,-0.107,0.047,0.057,-0.104
0.008,-0.1,-0.109,0.046,0.058,-0.104
0.006,-0.098,-0.104,0.047,0.055,-0.101
0.01,-0.095,-0.105,0.043,0.058,-0.1
0.01,-0.095,-0.105,0.043,0.058,-0.1
0.014,-0.091,-0.105,0.039,0.06,-0.097
0.015,-0.09,-0.106,0.038,0.06,-0.097
0.015,-0.088,-0.103,0.037,0.059,-0.095
0.015,-0.085,-0.1,0.035,0.058,-0.092
0.015,-0.085,-0.1,0.035,0.058,-0.092
0.019,-0.081,-0.1,0.031,0.06,-0.09
0.02,-0.08,-0.1,0.03,0.06,-0.09
0.022,-0.078,-0.1,0.028,0.062,-0.089
0.024,-0.075,-0.099,0.025,0.062,-0.087
0.02,-0.075,-0.095,0.028,0.058,-0.085
0.024,-0.071,-0.095,0.024,0.059,-0.082
0.025,-0.07,-0.096,0.023,0.06,-0.082
0.026,-0.067,-0.093,0.021,0.06,-0.08
0.032,-0.058,-0.089,0.013,0.061,-0.074
0.04,-0.05,-0.09,0.005,0.065,-0.07
0.049,-0.042,-0.091,-0.003,0.07,-0.066
0.05,-0.034,-0.084,-0.008,0.067,-0.059
0.051,-0.026,-0.077,-0.013,0.064,-0.051
0.056,-0.018,-0.074,-0.018,0.065,-0.046
0.06,-0.01,-0.07,-0.025,0.065,-0.04
0.064,0.002,-0.062,-0.033,0.063,-0.029
0.068,0.011,-0.056,-0.039,0.062,-0.022
0.072,0.019,-0.053,-0.045,0.062,-0.017
0.075,0.027,-0.048,-0.051,0.061,-0.01
0.075,0.035,-0.04,-0.055,0.057,-0.002
0.075,0.043,-0.032,-0.059,0.053,0.005
0.075,0.051,-0.024,-0.063,0.049,0.013
0.074,0.058,-0.016,-0.066,0.045,0.021
0.076,0.068,-0.008,-0.072,0.042,0.03
0.08,0.08,0.0,-0.08,0.04,0.04
0.078,0.082,0.004,-0.081,0.037,0.043
0.096,0.104,0.008,-0.1,0.043,0.055
0.107,0.119,0.012,-0.113,0.047,0.065
0.106,0.122,0.016,-0.115,0.045,0.069
0.12,0.14,0.02,-0.13,0.05,0.08
0.132,0.156,0.024,-0.145,0.054,0.09
0.143,0.171,0.028,-0.157,0.057,0.099
0.142,0.175,0.032,-0.159,0.055,0.103
0.133,0.169,0.036,-0.152,0.049,0.102
0.135,0.17,0.035,-0.153,0.05,0.102
0.149,0.182,0.033,-0.166,0.057,0.108
0.145,0.191,0.047,-0.169,0.048,0.119
0.14,0.199,0.059,-0.17,0.04,0.129
0.146,0.215,0.069,-0.181,0.039,0.141
0.15,0.235,0.085,-0.193,0.032,0.16
0.154,0.24,0.086,-0.197,0.034,0.162
0.159,0.243,0.084,-0.202,0.037,0.164
0.158,0.244,0.086,-0.202,0.036,0.165
0.155,0.239,0.084,-0.197,0.036,0.161
0.15,0.235,0.085,-0.193,0.032,0.16
0.124,0.235,0.111,-0.18,0.006,0.173
0.12,0.233,0.112,-0.177,0.004,0.172
0.127,0.227,0.1,-0.178,0.014,0.163
0.132,0.225,0.093,-0.179,0.019,0.159
0.14,0.225,0.085,-0.183,0.027,0.155
0.136,0.214,0.077,-0.175,0.03,0.145
0.133,0.201,0.068,-0.167,0.032,0.134
0.125,0.189,0.064,-0.157,0.03,0.126
0.121,0.178,0.057,-0.149,0.032,0.117
0.13,0.17,0.04,-0.15,0.045,0.105
0.13,0.158,0.028,-0.144,0.05,0.093
0.134,0.147,0.013,-0.141,0.06,0.08
0.132,0.13,-0.002,-0.131,0.067,0.063
0.115,0.103,-0.012,-0.109,0.064,0.046
0.1,0.08,-0.02,-0.09,0.06,0.03
0.096,0.068,-0.028,-0.082,0.061,0.019
0.092,0.056,-0.036,-0.074,0.064,0.01
0.088,0.044,-0.044,-0.066,0.066,0.0
0.084,0.032,-0.051,-0.058,0.067,-0.009
0.075,0.02,-0.055,-0.047,0.065,-0.017
0.063,0.004,-0.059,-0.034,0.061,-0.027
0.051,-0.012,-0.063,-0.019,0.057,-0.037
0.038,-0.029,-0.066,-0.004,0.052,-0.047
0.012,-0.051,-0.063,0.02,0.038,-0.057
0.0,-0.065,-0.065,0.033,0.033,-0.065
0.053,-0.046,-0.099,-0.003,0.077,-0.072
0.038,-0.067,-0.105,0.015,0.072,-0.086
0.007,-0.092,-0.098,0.042,0.053,-0.095
0.011,-0.09,-0.101,0.04,0.056,-0.095
0.005,-0.095,-0.1,0.045,0.053,-0.097
-0.004,-0.1,-0.096,0.052,0.046,-0.097
-0.006,-0.1,-0.094,0.053,0.044,-0.096
-0.005,-0.102,-0.097,0.054,0.046,-0.099
-0.014,-0.105,-0.092,0.06,0.039,-0.098
-0.025,-0.11,-0.085,0.068,0.03,-0.097
-0.009,-0.127,-0.119,0.068,0.055,-0.122
-0.006,-0.129,-0.123,0.068,0.059,-0.126
-0.013,-0.124,-0.111,0.069,0.05,-0.117
-0.016,-0.125,-0.11,0.07,0.047,-0.117
-0.02,-0.125,-0.105,0.073,0.043,-0.115
-0.028,-0.125,-0.097,0.077,0.035,-0.111
-0.033,-0.125,-0.092,0.079,0.03,-0.108
-0.037,-0.125,-0.088,0.081,0.026,-0.106
-0.041,-0.124,-0.084,0.083,0.022,-0.104
-0.04,-0.12,-0.08,0.08,0.02,-0.1
-0.035,-0.116,-0.08,0.075,0.023,-0.097
-0.038,-0.115,-0.077,0.077,0.02,-0.096
-0.039,-0.114,-0.075,0.077,0.018,-0.094
-0.034,-0.109,-0.074,0.072,0.02,-0.091
-0.035,-0.105,-0.07,0.07,0.018,-0.087
-0.035,-0.105,-0.07,0.07,0.018,-0.087
-0.035,-0.102,-0.067,0.069,0.016,-0.084
-0.035,-0.1,-0.065,0.068,0.015,-0.082
-0.035,-0.099,-0.064,0.068,0.015,-0.081
-0.035,-0.095,-0.06,0.065,0.013,-0.077
-0.036,-0.095,-0.059,0.065,0.012,-0.076
-0.028,-0.096,-0.067,0.062,0.02,-0.081
-0.026,-0.093,-0.067,0.059,0.021,-0.08
-0.031,-0.09,-0.058,0.061,0.014,-0.074
-0.035,-0.09,-0.055,0.063,0.01,-0.072
-0.039,-0.086,-0.047,0.063,0.004,-0.066
-0.042,-0.084,-0.042,0.064,0.0,-0.063
-0.049,-0.086,-0.036,0.067,-0.006,-0.06
-0.056,-0.084,-0.029,0.07,-0.013,-0.056
-0.055,-0.08,-0.025,0.068,-0.015,-0.052
-0.059,-0.08,-0.021,0.069,-0.019,-0.05
-0.063,-0.08,-0.017,0.072,-0.023,-0.048
-0.067,-0.08,-0.013,0.074,-0.027,-0.046
-0.071,-0.08,-0.009,0.076,-0.031,-0.044
-0.075,-0.08,-0.005,0.078,-0.035,-0.042
-0.079,-0.08,-0.001,0.08,-0.039,-0.04
-0.082,-0.08,0.002,0.081,-0.042,-0.039
-0.072,-0.08,-0.008,0.076,-0.032,-0.044
-0.049,-0.08,-0.031,0.065,-0.009,-0.055
-0.035,-0.08,-0.045,0.058,0.005,-0.062
-0.038,-0.08,-0.041,0.059,0.001,-0.061
-0.041,-0.081,-0.039,0.061,-0.001,-0.06
-0.038,-0.078,-0.04,0.058,0.001,-0.059
-0.035,-0.075,-0.04,0.055,0.003,-0.057
-0.035,-0.075,-0.04,0.055,0.003,-0.057
-0.035,-0.075,-0.04,0.055,0.003,-0.057
-0.035,-0.075,-0.04,0.055,0.003,-0.057
-0.035,-0.075,-0.04,0.055,0.003,-0.057
-0.035,-0.075,-0.04,0.055,0.003,-0.057
-0.035,-0.075,-0.04,0.055,0.003,-0.057
-0.035,-0.075,-0.04,0.055,0.003,-0.057
-0.035,-0.075,-0.04,0.055,0.003,-0.057
-0.035,-0.075,-0.04,0.055,0.003,-0.057
-0.036,-0.075,-0.039,0.055,0.002,-0.057
-0.04,-0.075,-0.035,0.058,-0.002,-0.055
-0.041,-0.075,-0.035,0.059,-0.002,-0.055
-0.037,-0.072,-0.035,0.055,-0.001,-0.053
-0.034,-0.069,-0.035,0.052,0.0,-0.052
-0.035,-0.07,-0.035,0.053,0.0,-0.052
-0.035,-0.07,-0.035,0.053,0.0,-0.052
-0.031,-0.066,-0.035,0.049,0.003,-0.05
-0.03,-0.065,-0.035,0.048,0.003,-0.05
-0.03,-0.065,-0.035,0.048,0.003,-0.05
-0.03,-0.065,-0.035,0.048,0.003,-0.05
-0.03,-0.065,-0.035,0.048,0.003,-0.05
-0.026,-0.061,-0.035,0.044,0.005,-0.047
-0.024,-0.059,-0.035,0.042,0.006,-0.047
-0.027,-0.061,-0.034,0.044,0.003,-0.047
-0.031,-0.059,-0.028,0.045,-0.001,-0.044
-0.025,-0.055,-0.03,0.04,0.003,-0.042
0.001,-0.055,-0.056,0.027,0.029,-0.055
0.004,-0.055,-0.059,0.026,0.032,-0.057
-0.002,-0.055,-0.054,0.029,0.026,-0.055
0.001,-0.054,-0.055,0.027,0.029,-0.055
0.005,-0.05,-0.055,0.023,0.03,-0.052
0.006,-0.05,-0.055,0.023,0.03,-0.052
0.002,-0.05,-0.052,0.024,0.027,-0.051
0.0,-0.05,-0.049,0.025,0.025,-0.05
-0.001,-0.051,-0.05,0.026,0.025,-0.05
-0.005,-0.055,-0.05,0.03,0.023,-0.052
-0.005,-0.055,-0.05,0.03,0.023,-0.052
-0.008,-0.055,-0.047,0.032,0.02,-0.051
-0.011,-0.055,-0.044,0.033,0.017,-0.05
-0.01,-0.055,-0.045,0.033,0.018,-0.05
-0.01,-0.055,-0.045,0.033,0.018,-0.05
-0.011,-0.056,-0.045,0.034,0.017,-0.05
-0.004,-0.049,-0.046,0.027,0.021,-0.047
-0.016,-0.059,-0.043,0.038,0.014,-0.051
-0.037,-0.077,-0.04,0.057,0.002,-0.058
-0.03,-0.07,-0.04,0.05,0.005,-0.055
-0.025,-0.065,-0.04,0.045,0.008,-0.052
-0.025,-0.065,-0.041,0.045,0.009,-0.052
-0.025,-0.064,-0.038,0.045,0.007,-0.05
-0.024,-0.059,-0.035,0.042,0.005,-0.046
-0.02,-0.055,-0.035,0.038,0.008,-0.045
-0.019,-0.054,-0.035,0.037,0.008,-0.045
-0.026,-0.061,-0.035,0.044,0.005,-0.048
-0.034,-0.068,-0.034,0.051,0.001,-0.051
-0.043,-0.08,-0.037,0.062,-0.003,-0.058
-0.05,-0.1,-0.05,0.075,0.0,-0.075
-0.033,-0.097,-0.064,0.065,0.016,-0.08
-0.031,-0.094,-0.063,0.063,0.016,-0.078
-0.035,-0.094,-0.059,0.064,0.012,-0.076
-0.028,-0.088,-0.06,0.058,0.016,-0.074
-0.03,-0.09,-0.06,0.06,0.015,-0.075
-0.055,-0.115,-0.06,0.085,0.002,-0.088
-0.06,-0.12,-0.06,0.09,0.0,-0.09
-0.052,-0.112,-0.06,0.082,0.005,-0.085
-0.05,-0.11,-0.06,0.08,0.005,-0.085
-0.05,-0.11,-0.06,0.08,0.005,-0.085
-0.046,-0.106,-0.06,0.076,0.008,-0.082
-0.045,-0.105,-0.06,0.075,0.008,-0.082
-0.044,-0.104,-0.06,0.074,0.008,-0.082
-0.038,-0.099,-0.06,0.069,0.011,-0.079
-0.035,-0.095,-0.06,0.065,0.013,-0.077
-0.039,-0.095,-0.056,0.068,0.009,-0.075
-0.038,-0.092,-0.055,0.065,0.009,-0.073
-0.034,-0.089,-0.055,0.062,0.011,-0.071
-0.036,-0.091,-0.055,0.064,0.01,-0.073
-0.04,-0.095,-0.055,0.068,0.008,-0.075
-0.04,-0.095,-0.055,0.068,0.008,-0.075
-0.04,-0.095,-0.055,0.068,0.008,-0.075
-0.04,-0.095,-0.055,0.068,0.008,-0.075
-0.041,-0.096,-0.055,0.069,0.008,-0.075
-0.045,-0.1,-0.055,0.073,0.005,-0.077
-0.045,-0.1,-0.055,0.073,0.005,-0.077
-0.045,-0.1,-0.055,0.073,0.005,-0.077
-0.045,-0.1,-0.055,0.073,0.005,-0.077
-0.046,-0.1,-0.054,0.073,0.004,-0.077
-0.05,-0.1,-0.05,0.075,0.0,-0.075
-0.054,-0.104,-0.05,0.079,-0.001,-0.077
-0.059,-0.105,-0.047,0.082,-0.005,-0.076
-0.06,-0.105,-0.045,0.083,-0.007,-0.075
-0.061,-0.105,-0.044,0.083,-0.008,-0.075
-0.065,-0.105,-0.04,0.085,-0.012,-0.072
-0.066,-0.106,-0.04,0.086,-0.013,-0.072
-0.057,-0.097,-0.04,0.077,-0.008,-0.068
-0.045,-0.084,-0.039,0.064,-0.003,-0.062
-0.04,-0.081,-0.041,0.06,0.001,-0.061
-0.04,-0.095,-0.055,0.068,0.008,-0.075
-0.04,-0.124,-0.085,0.082,0.023,-0.105
-0.043,-0.136,-0.094,0.09,0.026,-0.115
-0.046,-0.132,-0.086,0.089,0.02,-0.109
-0.043,-0.139,-0.096,0.091,0.027,-0.117
-0.035,-0.16,-0.125,0.098,0.045,-0.142
-0.035,-0.157,-0.122,0.096,0.044,-0.139
-0.035,-0.155,-0.119,0.095,0.043,-0.136
-0.035,-0.153,-0.119,0.094,0.042,-0.135
-0.035,-0.149,-0.114,0.093,0.04,-0.131
-0.035,-0.15,-0.115,0.093,0.04,-0.132
-0.035,-0.151,-0.116,0.093,0.04,-0.133
-0.035,-0.147,-0.112,0.091,0.039,-0.129
-0.035,-0.145,-0.11,0.09,0.038,-0.127
-0.035,-0.144,-0.109,0.09,0.038,-0.126
-0.035,-0.14,-0.105,0.088,0.035,-0.122
-0.035,-0.14,-0.105,0.088,0.035,-0.122
-0.036,-0.14,-0.105,0.088,0.035,-0.122
-0.033,-0.14,-0.107,0.087,0.037,-0.123
-0.03,-0.14,-0.11,0.085,0.04,-0.125
-0.03,-0.14,-0.11,0.085,0.04,-0.125
-0.03,-0.14,-0.11,0.085,0.04,-0.125
-0.03,-0.14,-0.11,0.085,0.04,-0.125
-0.03,-0.14,-0.11,0.085,0.04,-0.125
-0.03,-0.14,-0.11,0.085,0.04,-0.125
-0.03,-0.14,-0.11,0.085,0.04,-0.125
-0.026,-0.14,-0.114,0.083,0.044,-0.127
-0.025,-0.14,-0.115,0.083,0.045,-0.127
-0.025,-0.14,-0.115,0.083,0.045,-0.127
-0.025,-0.14,-0.115,0.083,0.045,-0.127
-0.025,-0.14,-0.115,0.083,0.045,-0.127
-0.025,-0.14,-0.115,0.083,0.045,-0.127
-0.026,-0.14,-0.114,0.083,0.044,-0.127
-0.023,-0.14,-0.117,0.082,0.047,-0.128
-0.019,-0.14,-0.12,0.08,0.05,-0.13
-0.02,-0.14,-0.12,0.08,0.05,-0.13
-0.024,-0.144,-0.12,0.084,0.049,-0.131
-0.029,-0.149,-0.12,0.089,0.046,-0.134
-0.029,-0.15,-0.121,0.09,0.045,-0.135
-0.032,-0.151,-0.119,0.091,0.044,-0.135
-0.035,-0.155,-0.12,0.095,0.043,-0.137
-0.017,-0.155,-0.138,0.086,0.061,-0.146
-0.022,-0.158,-0.136,0.09,0.057,-0.147
-0.033,-0.161,-0.127,0.097,0.047,-0.144
-0.036,-0.16,-0.123,0.099,0.043,-0.141
-0.045,-0.16,-0.115,0.103,0.035,-0.137
-0.049,-0.16,-0.111,0.105,0.031,-0.135
-0.056,-0.16,-0.104,0.108,0.024,-0.132
-0.063,-0.16,-0.097,0.112,0.017,-0.128
-0.064,-0.16,-0.096,0.113,0.016,-0.127
-0.06,-0.16,-0.1,0.11,0.02,-0.13
-0.06,-0.16,-0.1,0.11,0.02,-0.13
-0.06,-0.16,-0.1,0.11,0.02,-0.13
-0.061,-0.16,-0.099,0.11,0.019,-0.13
-0.058,-0.16,-0.102,0.109,0.022,-0.131
-0.045,-0.16,-0.115,0.103,0.035,-0.137
-0.034,-0.16,-0.126,0.097,0.046,-0.143
-0.013,-0.161,-0.147,0.087,0.067,-0.154
-0.004,-0.158,-0.154,0.082,0.075,-0.156
-0.021,-0.163,-0.142,0.093,0.06,-0.152
-0.045,-0.18,-0.135,0.113,0.045,-0.157
-0.046,-0.177,-0.131,0.111,0.043,-0.154
-0.047,-0.172,-0.124,0.109,0.039,-0.148
-0.052,-0.168,-0.116,0.11,0.032,-0.141
-0.056,-0.165,-0.109,0.111,0.027,-0.136
-0.06,-0.165,-0.105,0.113,0.023,-0.135
-0.061,-0.161,-0.101,0.111,0.02,-0.131
-0.057,-0.156,-0.1,0.106,0.022,-0.128
-0.055,-0.155,-0.1,0.105,0.023,-0.127
-0.055,-0.154,-0.1,0.105,0.023,-0.127
-0.05,-0.15,-0.1,0.1,0.025,-0.125
-0.045,-0.145,-0.1,0.095,0.028,-0.122
-0.049,-0.146,-0.097,0.097,0.025,-0.121
-0.048,-0.142,-0.094,0.095,0.024,-0.118
-0.038,-0.133,-0.095,0.086,0.029,-0.114
-0.03,-0.125,-0.095,0.078,0.033,-0.11
-0.022,-0.117,-0.095,0.07,0.037,-0.106
-0.013,-0.109,-0.096,0.062,0.042,-0.103
-0.009,-0.101,-0.091,0.055,0.042,-0.096
-0.01,-0.094,-0.084,0.052,0.037,-0.089
-0.01,-0.09,-0.08,0.05,0.035,-0.085
-0.01,-0.082,-0.072,0.046,0.031,-0.077
-0.007,-0.074,-0.067,0.041,0.03,-0.07
-0.005,-0.066,-0.061,0.036,0.028,-0.063
-0.005,-0.058,-0.053,0.032,0.024,-0.055
0.0,-0.05,-0.05,0.025,0.025,-0.05
0.008,-0.042,-0.05,0.017,0.029,-0.046
0.017,-0.033,-0.05,0.008,0.034,-0.041
0.019,-0.031,-0.05,0.006,0.035,-0.04
0.014,-0.036,-0.05,0.011,0.033,-0.042
0.015,-0.035,-0.05,0.01,0.033,-0.042
0.015,-0.035,-0.05,0.01,0.033,-0.042
0.015,-0.035,-0.05,0.01,0.033,-0.042
0.015,-0.035,-0.05,0.01,0.033,-0.042
0.015,-0.035,-0.05,0.01,0.033,-0.042
0.015,-0.035,-0.05,0.01,0.033,-0.042
0.015,-0.035,-0.05,0.01,0.033,-0.042
0.015,-0.035,-0.05,0.01,0.033,-0.042
0.014,-0.035,-0.049,0.011,0.032,-0.042
0.008,-0.035,-0.043,0.014,0.026,-0.039
0.01,-0.035,-0.045,0.013,0.028,-0.04
0.036,-0.046,-0.082,0.005,0.059,-0.064
0.035,-0.063,-0.098,0.014,0.066,-0.08
0.017,-0.075,-0.092,0.03,0.055,-0.083
0.018,-0.081,-0.099,0.032,0.059,-0.089
0.035,-0.085,-0.12,0.025,0.078,-0.102
0.032,-0.093,-0.125,0.031,0.079,-0.109
0.027,-0.098,-0.125,0.036,0.076,-0.111
0.019,-0.105,-0.125,0.043,0.072,-0.115
0.008,-0.118,-0.126,0.055,0.067,-0.122
0.005,-0.125,-0.13,0.06,0.068,-0.127
0.003,-0.127,-0.13,0.062,0.067,-0.129
-0.016,-0.145,-0.129,0.081,0.057,-0.137
-0.027,-0.159,-0.132,0.093,0.053,-0.145
-0.025,-0.16,-0.135,0.093,0.055,-0.148
-0.03,-0.165,-0.135,0.098,0.053,-0.15
-0.035,-0.169,-0.135,0.102,0.05,-0.152
-0.035,-0.17,-0.136,0.103,0.05,-0.152
-0.037,-0.17,-0.133,0.104,0.048,-0.151
-0.04,-0.17,-0.13,0.105,0.045,-0.15
-0.04,-0.17,-0.13,0.105,0.045,-0.15
-0.04,-0.17,-0.13,0.105,0.045,-0.15
-0.039,-0.17,-0.131,0.105,0.046,-0.15
-0.042,-0.17,-0.128,0.106,0.043,-0.149
-0.045,-0.17,-0.125,0.108,0.04,-0.147
-0.045,-0.17,-0.125,0.108,0.04,-0.147
-0.049,-0.174,-0.125,0.112,0.039,-0.149
-0.054,-0.179,-0.125,0.117,0.035,-0.152
-0.053,-0.179,-0.125,0.116,0.036,-0.152
-0.05,-0.174,-0.124,0.113,0.038,-0.149
-0.055,-0.175,-0.12,0.115,0.033,-0.147
-0.056,-0.175,-0.12,0.116,0.033,-0.147
-0.052,-0.172,-0.12,0.112,0.034,-0.146
-0.049,-0.169,-0.12,0.109,0.036,-0.145
-0.051,-0.17,-0.119,0.111,0.034,-0.145
-0.055,-0.17,-0.115,0.113,0.03,-0.142
-0.051,-0.166,-0.115,0.109,0.032,-0.14
-0.05,-0.165,-0.115,0.108,0.033,-0.14
-0.049,-0.165,-0.116,0.107,0.034,-0.141
-0.053,-0.165,-0.112,0.109,0.03,-0.139
-0.05,-0.165,-0.115,0.108,0.033,-0.14
-0.001,-0.166,-0.165,0.084,0.082,-0.165
-0.013,-0.193,-0.18,0.103,0.084,-0.186
-0.033,-0.205,-0.173,0.12,0.071,-0.189
-0.016,-0.192,-0.176,0.105,0.081,-0.184
-0.01,-0.185,-0.175,0.098,0.083,-0.18
-0.009,-0.176,-0.167,0.093,0.08,-0.171
0.054,-0.177,-0.231,0.062,0.143,-0.204
0.108,-0.148,-0.256,0.02,0.182,-0.202
0.108,-0.094,-0.202,-0.007,0.156,-0.148
0.125,-0.045,-0.17,-0.04,0.148,-0.107
0.213,0.059,-0.153,-0.136,0.183,-0.046
0.282,0.22,-0.062,-0.251,0.171,0.079
0.331,0.415,0.084,-0.373,0.123,0.249
0.4,0.604,0.204,-0.502,0.098,0.404
0.465,0.755,0.29,-0.61,0.087,0.522
0.451,0.885,0.434,-0.669,0.008,0.659
0.403,1.066,0.663,-0.735,-0.13,0.864
0.358,1.185,0.827,-0.772,-0.235,1.006
0.294,1.156,0.862,-0.725,-0.285,1.009
0.205,1.03,0.825,-0.618,-0.31,0.927
0.153,0.871,0.717,-0.513,-0.282,0.794
0.05,0.714,0.664,-0.382,-0.307,0.689
-0.056,0.599,0.656,-0.271,-0.356,0.627
-0.137,0.476,0.613,-0.17,-0.375,0.544
-0.23,0.3,0.53,-0.035,-0.38,0.415
-0.285,0.184,0.47,0.05,-0.378,0.327
-0.248,0.117,0.365,0.066,-0.307,0.24
-0.192,0.049,0.241,0.072,-0.216,0.144
-0.173,-0.02,0.153,0.096,-0.162,0.066
-0.17,-0.075,0.095,0.122,-0.132,0.01
-0.167,-0.135,0.031,0.151,-0.098,-0.051
-0.159,-0.153,0.006,0.156,-0.083,-0.073
-0.151,-0.149,0.002,0.15,-0.077,-0.073
-0.142,-0.149,-0.007,0.146,-0.067,-0.078
-0.13,-0.145,-0.015,0.138,-0.057,-0.08
-0.122,-0.145,-0.023,0.134,-0.049,-0.084
-0.115,-0.146,-0.031,0.131,-0.042,-0.088
-0.103,-0.143,-0.04,0.124,-0.031,-0.091
-0.094,-0.14,-0.045,0.117,-0.024,-0.092
-0.09,-0.14,-0.05,0.115,-0.02,-0.095
-0.069,-0.14,-0.071,0.105,0.001,-0.105
-0.063,-0.14,-0.078,0.102,0.007,-0.109
-0.049,-0.138,-0.089,0.094,0.02,-0.114
-0.027,-0.135,-0.108,0.081,0.041,-0.121
-0.025,-0.135,-0.11,0.08,0.043,-0.122
-0.022,-0.135,-0.114,0.079,0.046,-0.124
-0.013,-0.132,-0.119,0.073,0.053,-0.125
-0.01,-0.13,-0.119,0.07,0.054,-0.124
-0.008,-0.13,-0.122,0.069,0.057,-0.126
0.0,-0.13,-0.13,0.065,0.065,-0.13
-0.012,-0.13,-0.119,0.072,0.053,-0.124
-0.019,-0.127,-0.108,0.073,0.045,-0.117
-0.023,-0.124,-0.102,0.074,0.04,-0.113
-0.033,-0.125,-0.092,0.079,0.03,-0.108
-0.045,-0.125,-0.08,0.085,0.018,-0.102
-0.054,-0.125,-0.072,0.089,0.01,-0.098
-0.058,-0.122,-0.064,0.09,0.003,-0.093
-0.062,-0.119,-0.057,0.091,-0.002,-0.088
-0.066,-0.12,-0.055,0.094,-0.006,-0.087
-0.065,-0.12,-0.055,0.093,-0.005,-0.087
-0.06,-0.116,-0.056,0.088,-0.002,-0.086
-0.064,-0.115,-0.051,0.09,-0.006,-0.083
-0.046,-0.115,-0.069,0.081,0.012,-0.092
-0.023,-0.115,-0.092,0.069,0.035,-0.103
-0.03,-0.115,-0.085,0.073,0.028,-0.1
-0.027,-0.111,-0.084,0.069,0.029,-0.097
-0.024,-0.11,-0.086,0.067,0.031,-0.097
-0.027,-0.11,-0.083,0.069,0.028,-0.096
-0.031,-0.11,-0.08,0.07,0.025,-0.095
-0.03,-0.11,-0.08,0.07,0.025,-0.095
-0.026,-0.106,-0.08,0.066,0.027,-0.092
-0.021,-0.104,-0.083,0.063,0.031,-0.094
-0.019,-0.106,-0.086,0.063,0.034,-0.096
-0.011,-0.104,-0.093,0.058,0.041,-0.098
0.005,-0.1,-0.105,0.048,0.055,-0.102
0.002,-0.1,-0.102,0.049,0.052,-0.101
-0.003,-0.1,-0.097,0.052,0.047,-0.098
-0.008,-0.1,-0.093,0.054,0.042,-0.096
-0.009,-0.099,-0.09,0.054,0.04,-0.094
-0.005,-0.095,-0.09,0.05,0.043,-0.092
-0.009,-0.095,-0.086,0.052,0.039,-0.091
-0.013,-0.095,-0.081,0.054,0.034,-0.088
-0.016,-0.096,-0.08,0.056,0.033,-0.087
-0.014,-0.093,-0.079,0.054,0.033,-0.086
-0.01,-0.085,-0.075,0.048,0.033,-0.08
-0.011,-0.081,-0.071,0.046,0.03,-0.076
-0.004,-0.074,-0.07,0.039,0.033,-0.072
0.001,-0.068,-0.069,0.034,0.035,-0.068
0.001,-0.063,-0.064,0.032,0.033,-0.064
0.005,-0.055,-0.06,0.025,0.033,-0.057
0.005,-0.051,-0.056,0.023,0.031,-0.053
0.005,-0.047,-0.052,0.021,0.029,-0.049
0.004,-0.043,-0.047,0.02,0.026,-0.044
0.007,-0.039,-0.046,0.017,0.027,-0.042
0.01,-0.035,-0.045,0.013,0.028,-0.04
-0.007,-0.031,-0.024,0.02,0.008,-0.027
0.028,-0.027,-0.054,0.0,0.041,-0.04
0.039,-0.024,-0.063,-0.008,0.051,-0.043
0.002,-0.018,-0.02,0.008,0.011,-0.019
-0.01,-0.005,0.005,0.007,-0.007,0.0
-0.003,0.006,0.01,-0.002,-0.006,0.008
0.011,0.024,0.012,-0.018,-0.001,0.018
0.029,0.047,0.017,-0.038,0.005,0.032
0.042,0.062,0.02,-0.052,0.011,0.041
0.04,0.065,0.025,-0.053,0.007,0.045
0.023,0.065,0.042,-0.045,-0.01,0.053
0.018,0.064,0.047,-0.042,-0.015,0.056
0.022,0.067,0.044,-0.045,-0.011,0.055
0.025,0.07,0.045,-0.048,-0.01,0.057
0.025,0.07,0.045,-0.048,-0.01,0.057
0.025,0.07,0.045,-0.048,-0.01,0.057
0.028,0.073,0.045,-0.051,-0.009,0.059
0.03,0.075,0.045,-0.053,-0.008,0.06
0.03,0.075,0.045,-0.053,-0.008,0.06
0.03,0.075,0.045,-0.053,-0.008,0.06
0.029,0.074,0.045,-0.052,-0.008,0.06
0.035,0.08,0.045,-0.058,-0.005,0.063
0.043,0.088,0.045,-0.066,-0.001,0.066
0.044,0.089,0.045,-0.067,0.0,0.067
0.05,0.095,0.045,-0.073,0.002,0.07
0.077,0.123,0.045,-0.101,0.016,0.084
0.069,0.113,0.044,-0.091,0.012,0.078
0.079,0.126,0.047,-0.103,0.016,0.086
0.125,0.166,0.041,-0.146,0.042,0.103
0.135,0.165,0.03,-0.15,0.052,0.097
0.097,0.164,0.067,-0.131,0.015,0.116
0.089,0.168,0.079,-0.129,0.005,0.123
0.097,0.171,0.074,-0.135,0.012,0.122
0.094,0.169,0.075,-0.132,0.009,0.122
0.1,0.175,0.075,-0.138,0.012,0.125
0.135,0.209,0.074,-0.173,0.03,0.142
0.134,0.215,0.081,-0.174,0.026,0.147
0.124,0.227,0.103,-0.176,0.01,0.164
0.14,0.253,0.114,-0.197,0.013,0.183
0.15,0.255,0.105,-0.203,0.022,0.18
0.133,0.271,0.138,-0.202,-0.003,0.204
0.135,0.285,0.15,-0.21,-0.008,0.217
0.156,0.297,0.141,-0.227,0.008,0.218
0.164,0.315,0.151,-0.24,0.007,0.233
0.16,0.33,0.17,-0.245,-0.005,0.25
0.182,0.328,0.146,-0.256,0.018,0.237
0.173,0.346,0.174,-0.26,-0.001,0.26
0.154,0.354,0.2,-0.254,-0.023,0.277
0.166,0.353,0.188,-0.259,-0.011,0.27
0.19,0.375,0.185,-0.283,0.002,0.28
0.195,0.376,0.181,-0.285,0.006,0.278
0.198,0.375,0.177,-0.287,0.01,0.276
0.183,0.372,0.189,-0.278,-0.003,0.28
0.163,0.372,0.209,-0.268,-0.023,0.29
0.175,0.395,0.22,-0.285,-0.023,0.307
0.189,0.422,0.233,-0.306,-0.023,0.328
0.189,0.422,0.233,-0.305,-0.023,0.327
0.181,0.41,0.23,-0.295,-0.025,0.319
0.174,0.403,0.229,-0.289,-0.028,0.316
0.17,0.395,0.225,-0.283,-0.028,0.31
0.162,0.387,0.225,-0.275,-0.032,0.306
0.157,0.378,0.222,-0.268,-0.033,0.3
0.153,0.373,0.22,-0.263,-0.034,0.296
0.149,0.368,0.219,-0.259,-0.035,0.294
0.145,0.36,0.215,-0.253,-0.035,0.287
0.137,0.352,0.215,-0.245,-0.039,0.283
0.132,0.344,0.212,-0.238,-0.04,0.278
0.126,0.336,0.211,-0.231,-0.042,0.273
0.12,0.328,0.208,-0.224,-0.044,0.268
0.125,0.32,0.195,-0.223,-0.035,0.257
0.128,0.314,0.187,-0.222,-0.029,0.25
0.106,0.285,0.179,-0.196,-0.037,0.232
0.075,0.246,0.171,-0.161,-0.049,0.209
0.058,0.22,0.162,-0.14,-0.052,0.191
0.06,0.21,0.15,-0.135,-0.045,0.18
0.06,0.202,0.142,-0.131,-0.041,0.172
0.059,0.194,0.135,-0.126,-0.038,0.164
0.063,0.187,0.124,-0.125,-0.031,0.155
0.064,0.177,0.113,-0.121,-0.024,0.144
0.055,0.16,0.105,-0.108,-0.025,0.132
0.047,0.144,0.097,-0.096,-0.025,0.12
0.036,0.128,0.092,-0.082,-0.028,0.109
0.025,0.113,0.088,-0.069,-0.032,0.101
0.019,0.103,0.084,-0.061,-0.033,0.093
0.015,0.095,0.08,-0.055,-0.033,0.087
0.006,0.087,0.08,-0.046,-0.037,0.083
0.004,0.082,0.078,-0.044,-0.037,0.079
0.004,0.077,0.072,-0.041,-0.034,0.074
-0.002,0.068,0.07,-0.033,-0.036,0.069
-0.01,0.06,0.07,-0.025,-0.04,0.065
-0.01,0.056,0.066,-0.023,-0.039,0.061
-0.01,0.052,0.061,-0.021,-0.036,0.056
-0.01,0.05,0.06,-0.02,-0.035,0.055
-0.01,0.049,0.059,-0.02,-0.035,0.054
-0.01,0.045,0.055,-0.018,-0.033,0.05
-0.01,0.045,0.055,-0.018,-0.033,0.05
-0.009,0.046,0.055,-0.019,-0.033,0.05
-0.012,0.043,0.055,-0.016,-0.034,0.049
-0.015,0.04,0.054,-0.013,-0.034,0.046
-0.01,0.04,0.05,-0.015,-0.03,0.045
-0.009,0.04,0.05,-0.016,-0.03,0.045
-0.013,0.037,0.05,-0.012,-0.032,0.043
-0.016,0.034,0.05,-0.009,-0.034,0.042
-0.014,0.035,0.049,-0.011,-0.032,0.042
-0.01,0.035,0.045,-0.013,-0.028,0.04
-0.014,0.031,0.045,-0.009,-0.03,0.037
-0.015,0.03,0.045,-0.008,-0.03,0.037
-0.017,0.028,0.045,-0.006,-0.031,0.036
-0.021,0.024,0.045,-0.002,-0.034,0.035
-0.02,0.025,0.045,-0.003,-0.033,0.035
-0.015,0.025,0.041,-0.005,-0.029,0.033
-0.018,0.022,0.04,-0.002,-0.029,0.031
-0.021,0.019,0.04,0.001,-0.03,0.03
-0.02,0.02,0.04,0.0,-0.03,0.03
-0.02,0.02,0.04,0.0,-0.03,0.03
-0.02,0.016,0.036,0.002,-0.028,0.026
-0.02,0.014,0.035,0.002,-0.028,0.024
-0.02,0.016,0.035,0.001,-0.028,0.025
-0.021,0.014,0.035,0.003,-0.028,0.024
-0.025,0.01,0.035,0.007,-0.03,0.022
-0.025,0.01,0.035,0.007,-0.03,0.022
-0.025,0.007,0.032,0.009,-0.029,0.019
-0.024,0.004,0.028,0.009,-0.026,0.016
-0.019,0.005,0.024,0.006,-0.022,0.015
-0.015,0.005,0.02,0.005,-0.018,0.012
-0.015,0.001,0.016,0.007,-0.015,0.008
-0.016,-0.001,0.015,0.007,-0.015,0.007
-0.013,0.001,0.014,0.006,-0.013,0.007
-0.01,-0.001,0.009,0.005,-0.009,0.004
-0.01,-0.005,0.005,0.007,-0.007,0.0
-0.006,-0.005,0.001,0.006,-0.003,-0.002
-0.001,-0.004,-0.004,0.003,0.002,-0.004
-0.002,-0.007,-0.005,0.005,0.002,-0.006
-0.004,-0.01,-0.006,0.008,0.001,-0.008
0.0,-0.01,-0.01,0.005,0.005,-0.01
-0.004,-0.014,-0.01,0.009,0.003,-0.011
-0.002,-0.016,-0.013,0.009,0.006,-0.014
0.001,-0.014,-0.015,0.007,0.008,-0.015
0.0,-0.016,-0.016,0.008,0.008,-0.016
0.0,-0.02,-0.02,0.01,0.01,-0.02
0.0,-0.02,-0.02,0.01,0.01,-0.02
0.0,-0.019,-0.019,0.01,0.01,-0.019
0.0,-0.022,-0.022,0.011,0.011,-0.022
0.0,-0.026,-0.025,0.013,0.013,-0.025
0.0,-0.025,-0.025,0.013,0.013,-0.025
0.005,-0.024,-0.029,0.01,0.018,-0.026
-0.001,-0.031,-0.03,0.015,0.015,-0.03
-0.007,-0.038,-0.032,0.023,0.013,-0.035
-0.004,-0.039,-0.036,0.022,0.016,-0.037
0.0,-0.035,-0.035,0.018,0.018,-0.035
-0.002,-0.035,-0.033,0.019,0.016,-0.034
0.016,-0.032,-0.048,0.008,0.032,-0.04
0.024,-0.03,-0.054,0.003,0.039,-0.041
0.013,-0.029,-0.042,0.009,0.028,-0.035
0.01,-0.025,-0.035,0.008,0.023,-0.03
0.007,-0.024,-0.031,0.009,0.02,-0.027
-0.004,-0.028,-0.024,0.016,0.01,-0.026
-0.015,-0.03,-0.016,0.023,0.001,-0.023
-0.022,-0.03,-0.008,0.026,-0.007,-0.019
-0.025,-0.03,-0.005,0.028,-0.01,-0.017
-0.017,-0.03,-0.013,0.024,-0.002,-0.021
-0.012,-0.03,-0.018,0.021,0.003,-0.024
-0.006,-0.03,-0.024,0.018,0.009,-0.027
0.0,-0.031,-0.031,0.015,0.016,-0.031
0.0,-0.035,-0.035,0.018,0.018,-0.035
0.008,-0.035,-0.043,0.014,0.026,-0.039
0.015,-0.034,-0.049,0.01,0.033,-0.042
0.011,-0.037,-0.048,0.013,0.03,-0.042
0.004,-0.04,-0.045,0.019,0.024,-0.042
0.005,-0.04,-0.045,0.018,0.025,-0.042
0.005,-0.04,-0.045,0.018,0.025,-0.042
0.009,-0.037,-0.046,0.015,0.027,-0.041
0.009,-0.034,-0.043,0.013,0.026,-0.039
0.004,-0.035,-0.04,0.015,0.023,-0.037
0.005,-0.035,-0.04,0.015,0.023,-0.037
0.005,-0.035,-0.04,0.015,0.023,-0.037
0.005,-0.035,-0.041,0.015,0.023,-0.037
0.003,-0.035,-0.038,0.016,0.021,-0.036
-0.001,-0.035,-0.035,0.018,0.017,-0.035
0.0,-0.035,-0.035,0.018,0.018,-0.035
0.004,-0.031,-0.035,0.014,0.02,-0.033
0.005,-0.03,-0.035,0.013,0.02,-0.032
0.005,-0.03,-0.035,0.013,0.02,-0.032
0.004,-0.03,-0.034,0.013,0.019,-0.032
0.0,-0.03,-0.03,0.015,0.015,-0.03
0.0,-0.03,-0.03,0.015,0.015,-0.03
0.0,-0.03,-0.03,0.015,0.015,-0.03
0.0,-0.03,-0.03,0.015,0.015,-0.03
0.0,-0.029,-0.029,0.015,0.015,-0.029
0.0,-0.025,-0.025,0.013,0.013,-0.025
0.0,-0.025,-0.025,0.013,0.013,-0.025
0.0,-0.025,-0.025,0.013,0.013,-0.025
0.0,-0.025,-0.025,0.013,0.013,-0.025
0.0,-0.025,-0.025,0.013,0.013,-0.025
0.0,-0.025,-0.025,0.013,0.013,-0.025
-0.004,-0.025,-0.021,0.015,0.009,-0.022
-0.005,-0.025,-0.02,0.015,0.008,-0.022
-0.006,-0.025,-0.018,0.016,0.006,-0.021
-0.011,-0.026,-0.015,0.019,0.002,-0.02
-0.015,-0.03,-0.015,0.023,0.0,-0.022
-0.019,-0.03,-0.011,0.024,-0.004,-0.02
-0.025,-0.033,-0.008,0.029,-0.008,-0.02
-0.021,-0.035,-0.014,0.028,-0.003,-0.025
-0.006,-0.035,-0.029,0.021,0.012,-0.032
0.0,-0.04,-0.04,0.02,0.02,-0.04
-0.009,-0.045,-0.036,0.027,0.014,-0.04
-0.008,-0.043,-0.035,0.026,0.014,-0.038
-0.005,-0.038,-0.033,0.022,0.014,-0.035
-0.004,-0.034,-0.03,0.019,0.013,-0.031
0.0,-0.03,-0.03,0.015,0.015,-0.03
-0.004,-0.03,-0.026,0.018,0.011,-0.028
-0.002,-0.028,-0.025,0.016,0.012,-0.026
0.001,-0.022,-0.023,0.011,0.012,-0.023
0.0,-0.02,-0.02,0.01,0.01,-0.02
0.0,-0.02,-0.02,0.01,0.01,-0.02
0.0,-0.016,-0.016,0.009,0.008,-0.016
0.002,-0.012,-0.014,0.006,0.008,-0.013
0.01,-0.008,-0.018,0.0,0.014,-0.013
0.014,-0.013,-0.027,0.0,0.021,-0.019
0.005,-0.03,-0.035,0.013,0.02,-0.032
0.001,-0.042,-0.043,0.021,0.022,-0.043
-0.004,-0.053,-0.049,0.029,0.023,-0.051
-0.019,-0.067,-0.048,0.043,0.015,-0.058
-0.031,-0.075,-0.044,0.054,0.007,-0.06
-0.025,-0.07,-0.045,0.048,0.01,-0.057
-0.024,-0.07,-0.046,0.047,0.011,-0.057
-0.029,-0.071,-0.042,0.05,0.006,-0.056
-0.029,-0.068,-0.04,0.048,0.006,-0.054
-0.025,-0.065,-0.04,0.045,0.008,-0.052
-0.025,-0.065,-0.04,0.045,0.008,-0.052
-0.025,-0.065,-0.04,0.045,0.008,-0.052
-0.029,-0.066,-0.037,0.047,0.005,-0.051
-0.029,-0.063,-0.034,0.046,0.003,-0.049
-0.025,-0.06,-0.035,0.043,0.005,-0.047
-0.025,-0.06,-0.035,0.043,0.005,-0.047
-0.025,-0.06,-0.035,0.043,0.005,-0.047
-0.029,-0.06,-0.032,0.045,0.002,-0.046
-0.029,-0.058,-0.029,0.043,0.0,-0.044
-0.024,-0.055,-0.03,0.039,0.004,-0.042
-0.025,-0.055,-0.03,0.04,0.003,-0.042
-0.03,-0.055,-0.026,0.043,-0.001,-0.041
-0.027,-0.052,-0.025,0.04,-0.001,-0.038
-0.024,-0.05,-0.025,0.037,0.0,-0.037
-0.025,-0.05,-0.025,0.038,0.0,-0.037
-0.025,-0.05,-0.025,0.038,0.0,-0.037
-0.03,-0.05,-0.021,0.04,-0.004,-0.036
-0.028,-0.047,-0.019,0.037,-0.004,-0.033
-0.024,-0.044,-0.021,0.034,-0.001,-0.032
-0.026,-0.045,-0.019,0.036,-0.003,-0.032
-0.025,-0.045,-0.02,0.035,-0.002,-0.032
-0.01,-0.043,-0.033,0.027,0.012,-0.038
-0.025,-0.058,-0.033,0.042,0.005,-0.045
-0.036,-0.065,-0.029,0.05,-0.003,-0.047
-0.03,-0.059,-0.029,0.045,0.0,-0.044
-0.035,-0.06,-0.025,0.048,-0.005,-0.042
-0.031,-0.056,-0.025,0.044,-0.002,-0.04
-0.033,-0.055,-0.022,0.044,-0.005,-0.038
-0.033,-0.053,-0.02,0.043,-0.006,-0.036
-0.031,-0.05,-0.019,0.04,-0.006,-0.035
-0.035,-0.05,-0.015,0.043,-0.01,-0.032
-0.027,-0.042,-0.015,0.035,-0.006,-0.028
-0.025,-0.037,-0.012,0.031,-0.006,-0.024
-0.021,-0.031,-0.01,0.026,-0.005,-0.02
-0.015,-0.024,-0.009,0.019,-0.003,-0.016
-0.02,-0.02,0.0,0.02,-0.01,-0.01
-0.02,-0.012,0.008,0.016,-0.014,-0.002
-0.023,-0.007,0.016,0.015,-0.019,0.004
-0.025,-0.001,0.024,0.013,-0.024,0.011
-0.026,0.007,0.032,0.01,-0.03,0.019
-0.03,0.01,0.04,0.01,-0.035,0.025
-0.029,0.013,0.042,0.007,-0.036,0.028
-0.04,0.021,0.061,0.009,-0.051,0.041
-0.044,0.027,0.071,0.008,-0.057,0.048
-0.032,0.032,0.064,0.0,-0.048,0.047
-0.03,0.035,0.065,-0.003,-0.048,0.05
-0.036,0.029,0.065,0.003,-0.051,0.046
-0.02,0.045,0.065,-0.013,-0.043,0.055
-0.009,0.056,0.065,-0.024,-0.037,0.061
-0.017,0.048,0.065,-0.016,-0.041,0.056
-0.015,0.05,0.065,-0.018,-0.04,0.057
-0.002,0.063,0.065,-0.031,-0.034,0.064
-0.003,0.062,0.065,-0.03,-0.034,0.064
-0.019,0.047,0.065,-0.015,-0.042,0.056
-0.005,0.059,0.064,-0.027,-0.035,0.061
0.045,0.105,0.06,-0.075,-0.008,0.082
0.044,0.103,0.06,-0.074,-0.008,0.082
0.036,0.096,0.06,-0.066,-0.013,0.078
0.033,0.093,0.06,-0.063,-0.014,0.076
0.029,0.089,0.06,-0.059,-0.016,0.074
0.025,0.085,0.06,-0.055,-0.018,0.072
0.021,0.081,0.06,-0.051,-0.02,0.07
0.017,0.077,0.06,-0.047,-0.022,0.068
0.012,0.071,0.06,-0.042,-0.025,0.065
0.002,0.063,0.06,-0.033,-0.03,0.061
-0.005,0.055,0.06,-0.025,-0.033,0.057
-0.002,0.047,0.049,-0.023,-0.026,0.048
0.004,0.039,0.035,-0.022,-0.016,0.037
0.005,0.031,0.026,-0.017,-0.011,0.028
0.006,0.024,0.017,-0.015,-0.006,0.02
0.015,0.02,0.005,-0.018,0.005,0.012
0.019,0.012,-0.007,-0.016,0.013,0.002
0.024,0.006,-0.018,-0.015,0.021,-0.005
0.022,0.004,-0.019,-0.013,0.02,-0.007
0.013,-0.002,-0.014,-0.005,0.014,-0.008
0.005,-0.01,-0.015,0.003,0.01,-0.012
0.0,-0.015,-0.015,0.008,0.008,-0.015
-0.001,-0.016,-0.015,0.009,0.007,-0.015
-0.014,-0.029,-0.015,0.022,0.001,-0.021
-0.026,-0.041,-0.015,0.034,-0.005,-0.028
-0.02,-0.035,-0.015,0.028,-0.002,-0.025
-0.024,-0.034,-0.011,0.029,-0.006,-0.022
-0.026,-0.036,-0.01,0.031,-0.008,-0.022
-0.023,-0.033,-0.01,0.028,-0.006,-0.021
-0.02,-0.03,-0.01,0.025,-0.005,-0.02
-0.02,-0.03,-0.01,0.025,-0.005,-0.02
-0.02,-0.03,-0.01,0.025,-0.005,-0.02
-0.02,-0.027,-0.007,0.024,-0.006,-0.017
-0.02,-0.024,-0.004,0.023,-0.007,-0.014
-0.02,-0.025,-0.005,0.023,-0.007,-0.015
-0.02,-0.025,-0.005,0.023,-0.007,-0.015
-0.016,-0.021,-0.005,0.019,-0.006,-0.012
-0.013,-0.019,-0.006,0.017,-0.004,-0.012
-0.02,-0.021,-0.001,0.021,-0.01,-0.01
-0.033,-0.019,0.014,0.026,-0.023,-0.003
-0.04,-0.015,0.025,0.027,-0.032,0.005
-0.036,-0.015,0.021,0.025,-0.028,0.003
-0.035,-0.016,0.02,0.026,-0.027,0.002
-0.032,-0.013,0.019,0.022,-0.025,0.002
-0.024,-0.01,0.014,0.016,-0.019,0.002
-0.025,-0.01,0.015,0.017,-0.02,0.002
-0.034,-0.01,0.023,0.022,-0.028,0.006
-0.035,-0.007,0.028,0.021,-0.031,0.01
-0.037,-0.004,0.033,0.021,-0.035,0.014
-0.048,-0.005,0.043,0.027,-0.045,0.018
-0.05,-0.005,0.045,0.027,-0.047,0.02
-0.022,-0.003,0.018,0.012,-0.019,0.007
-0.006,-0.016,-0.01,0.011,0.002,-0.013
-0.002,-0.031,-0.029,0.017,0.014,-0.03
0.017,-0.044,-0.061,0.014,0.039,-0.052
0.04,-0.06,-0.1,0.01,0.07,-0.08
0.025,-0.07,-0.095,0.022,0.061,-0.082
-0.017,-0.095,-0.078,0.057,0.031,-0.086
0.021,-0.088,-0.109,0.034,0.065,-0.098
0.094,-0.046,-0.14,-0.024,0.118,-0.093
0.09,-0.015,-0.105,-0.037,0.098,-0.06
0.117,0.038,-0.079,-0.077,0.098,-0.02
0.205,0.147,-0.058,-0.176,0.132,0.045
0.247,0.268,0.02,-0.257,0.114,0.144
0.243,0.397,0.154,-0.32,0.044,0.276
0.305,0.575,0.27,-0.44,0.017,0.422
0.408,0.754,0.346,-0.581,0.031,0.55
0.403,0.874,0.471,-0.639,-0.034,0.672
0.422,1.035,0.613,-0.729,-0.095,0.824
0.424,1.222,0.799,-0.823,-0.188,1.01
0.295,1.295,1.0,-0.795,-0.353,1.147
0.307,1.262,0.955,-0.785,-0.324,1.108
0.224,1.11,0.886,-0.667,-0.332,0.998
0.079,0.897,0.817,-0.488,-0.37,0.857
-0.007,0.719,0.726,-0.356,-0.367,0.722
-0.065,0.6,0.665,-0.268,-0.365,0.632
-0.142,0.458,0.6,-0.159,-0.371,0.528
-0.232,0.315,0.547,-0.041,-0.389,0.431
-0.231,0.224,0.454,0.004,-0.343,0.339
-0.18,0.171,0.351,0.004,-0.266,0.261
-0.185,0.11,0.295,0.037,-0.24,0.202
-0.153,0.051,0.204,0.051,-0.179,0.127
-0.171,-0.013,0.157,0.092,-0.165,0.072
-0.196,-0.056,0.14,0.126,-0.168,0.041
-0.179,-0.065,0.114,0.122,-0.146,0.024
-0.15,-0.06,0.09,0.105,-0.12,0.015
-0.129,-0.06,0.069,0.094,-0.099,0.004
-0.115,-0.057,0.058,0.086,-0.086,0.0
-0.106,-0.054,0.051,0.079,-0.078,-0.001
-0.098,-0.055,0.043,0.076,-0.07,-0.006
-0.09,-0.055,0.035,0.072,-0.062,-0.01
-0.078,-0.051,0.027,0.064,-0.052,-0.011
-0.068,-0.049,0.019,0.058,-0.043,-0.015
-0.063,-0.051,0.013,0.057,-0.038,-0.019
-0.058,-0.049,0.009,0.054,-0.033,-0.02
-0.05,-0.045,0.005,0.047,-0.027,-0.02
-0.05,-0.045,0.005,0.047,-0.027,-0.02
-0.051,-0.046,0.005,0.048,-0.027,-0.02
-0.048,-0.043,0.005,0.045,-0.026,-0.019
-0.045,-0.04,0.005,0.042,-0.025,-0.017
-0.045,-0.04,0.005,0.042,-0.025,-0.017
-0.045,-0.04,0.005,0.042,-0.025,-0.017
-0.042,-0.037,0.005,0.039,-0.023,-0.016
-0.038,-0.033,0.005,0.035,-0.021,-0.014
-0.034,-0.029,0.005,0.031,-0.02,-0.011
-0.03,-0.025,0.005,0.027,-0.017,-0.01
-0.023,-0.021,0.002,0.021,-0.012,-0.009
-0.044,-0.016,0.027,0.03,-0.035,0.005
-0.057,-0.015,0.042,0.036,-0.049,0.013
-0.048,-0.014,0.034,0.031,-0.04,0.01
-0.045,-0.01,0.035,0.027,-0.04,0.012
-0.045,-0.01,0.035,0.027,-0.04,0.012
-0.042,-0.007,0.035,0.024,-0.038,0.014
-0.04,-0.005,0.035,0.022,-0.037,0.015
-0.039,-0.004,0.035,0.021,-0.037,0.015
-0.035,0.0,0.035,0.017,-0.035,0.017
-0.035,0.0,0.035,0.017,-0.035,0.017
-0.032,0.003,0.035,0.014,-0.034,0.019
-0.03,0.005,0.035,0.012,-0.033,0.02
-0.029,0.006,0.035,0.011,-0.033,0.02
-0.025,0.01,0.035,0.007,-0.03,0.022
-0.025,0.01,0.035,0.007,-0.03,0.022
-0.022,0.013,0.035,0.004,-0.029,0.024
-0.02,0.015,0.035,0.002,-0.028,0.025
-0.019,0.016,0.035,0.001,-0.028,0.025
-0.015,0.02,0.035,-0.003,-0.025,0.027
-0.013,0.022,0.035,-0.005,-0.024,0.028
-0.025,0.01,0.035,0.007,-0.03,0.022
-0.028,0.007,0.035,0.01,-0.032,0.021
-0.017,0.018,0.035,-0.001,-0.027,0.026
-0.01,0.025,0.035,-0.008,-0.023,0.03
-0.002,0.033,0.035,-0.016,-0.019,0.034
0.007,0.042,0.035,-0.025,-0.014,0.039
0.009,0.044,0.035,-0.027,-0.013,0.039
0.004,0.039,0.035,-0.022,-0.016,0.036
0.0,0.035,0.035,-0.018,-0.018,0.035
0.0,0.031,0.031,-0.015,-0.016,0.031
0.0,0.027,0.027,-0.014,-0.014,0.027
0.0,0.023,0.023,-0.012,-0.012,0.023
0.0,0.019,0.019,-0.01,-0.009,0.019
0.005,0.02,0.015,-0.013,-0.005,0.017
0.017,0.028,0.012,-0.022,0.002,0.02
0.029,0.032,0.004,-0.031,0.012,0.018
0.026,0.041,0.015,-0.034,0.005,0.028
0.012,0.061,0.049,-0.036,-0.019,0.054
0.01,0.08,0.07,-0.045,-0.03,0.075
0.026,0.085,0.059,-0.056,-0.017,0.072
0.036,0.085,0.049,-0.061,-0.007,0.067
0.046,0.085,0.038,-0.066,0.004,0.061
0.038,0.086,0.048,-0.062,-0.006,0.067
0.0,0.09,0.09,-0.045,-0.045,0.09
0.002,0.09,0.088,-0.047,-0.043,0.089
0.006,0.089,0.083,-0.048,-0.038,0.086
0.006,0.092,0.086,-0.049,-0.04,0.089
0.012,0.096,0.084,-0.054,-0.036,0.09
0.02,0.1,0.08,-0.06,-0.03,0.09
0.025,0.104,0.08,-0.064,-0.028,0.092
0.025,0.105,0.08,-0.065,-0.028,0.092
0.026,0.107,0.08,-0.066,-0.027,0.093
0.032,0.111,0.079,-0.071,-0.024,0.095
0.04,0.115,0.075,-0.078,-0.018,0.095
0.049,0.123,0.075,-0.086,-0.014,0.099
0.053,0.128,0.076,-0.091,-0.012,0.102
0.059,0.132,0.073,-0.096,-0.007,0.102
0.066,0.135,0.07,-0.1,-0.003,0.102
0.065,0.135,0.07,-0.1,-0.003,0.102
0.069,0.139,0.07,-0.104,-0.001,0.105
0.07,0.14,0.07,-0.105,0.0,0.105
0.072,0.142,0.07,-0.107,0.001,0.106
0.075,0.145,0.07,-0.11,0.002,0.107
0.075,0.145,0.07,-0.11,0.002,0.107
0.075,0.145,0.07,-0.11,0.002,0.107
0.074,0.144,0.07,-0.109,0.001,0.106
0.079,0.149,0.07,-0.114,0.004,0.11
0.094,0.164,0.069,-0.129,0.013,0.117
0.11,0.18,0.07,-0.145,0.02,0.125
0.112,0.196,0.085,-0.154,0.014,0.14
0.102,0.209,0.107,-0.156,-0.003,0.158
0.104,0.221,0.117,-0.163,-0.007,0.169
0.127,0.233,0.106,-0.18,0.01,0.169
0.145,0.25,0.105,-0.198,0.02,0.177
0.134,0.28,0.146,-0.207,-0.007,0.213
0.128,0.293,0.165,-0.211,-0.019,0.229
0.148,0.315,0.167,-0.232,-0.01,0.24
0.166,0.336,0.17,-0.251,-0.002,0.252
0.165,0.33,0.165,-0.248,0.0,0.247
0.189,0.354,0.165,-0.272,0.013,0.259
0.2,0.366,0.166,-0.284,0.017,0.266
0.202,0.365,0.163,-0.284,0.019,0.264
0.196,0.365,0.168,-0.281,0.013,0.267
0.18,0.365,0.185,-0.273,-0.003,0.275
0.187,0.369,0.182,-0.278,0.002,0.276
0.195,0.371,0.176,-0.283,0.01,0.273
0.192,0.367,0.175,-0.28,0.008,0.271
0.182,0.375,0.192,-0.279,-0.005,0.283
0.175,0.4,0.225,-0.288,-0.025,0.312
0.175,0.406,0.231,-0.29,-0.028,0.318
0.175,0.404,0.23,-0.289,-0.028,0.316
0.177,0.407,0.23,-0.292,-0.027,0.318
0.18,0.41,0.23,-0.295,-0.025,0.32
0.18,0.41,0.23,-0.295,-0.025,0.32
0.186,0.416,0.23,-0.301,-0.022,0.323
0.208,0.437,0.229,-0.322,-0.011,0.333
0.212,0.444,0.232,-0.328,-0.01,0.338
0.197,0.432,0.235,-0.315,-0.02,0.334
0.19,0.425,0.235,-0.308,-0.023,0.33
0.183,0.417,0.234,-0.3,-0.026,0.326
0.171,0.409,0.238,-0.29,-0.034,0.323
0.161,0.401,0.24,-0.281,-0.04,0.32
0.153,0.393,0.241,-0.273,-0.044,0.316
0.145,0.385,0.24,-0.265,-0.048,0.312
0.145,0.369,0.224,-0.257,-0.04,0.296
0.143,0.353,0.21,-0.248,-0.034,0.281
0.137,0.337,0.199,-0.237,-0.032,0.268
0.135,0.322,0.187,-0.228,-0.026,0.254
0.135,0.31,0.175,-0.223,-0.02,0.242
0.127,0.294,0.167,-0.211,-0.02,0.23
0.119,0.278,0.159,-0.199,-0.02,0.218
0.111,0.262,0.151,-0.187,-0.02,0.206
0.103,0.246,0.143,-0.175,-0.02,0.194
0.095,0.23,0.135,-0.163,-0.02,0.182
0.084,0.21,0.127,-0.148,-0.022,0.168
0.067,0.189,0.122,-0.128,-0.028,0.156
0.057,0.173,0.116,-0.115,-0.03,0.144
0.054,0.163,0.109,-0.109,-0.028,0.135
0.05,0.155,0.105,-0.103,-0.028,0.13
0.046,0.143,0.097,-0.095,-0.026,0.119
0.042,0.134,0.092,-0.088,-0.025,0.113
0.038,0.124,0.087,-0.081,-0.025,0.105
0.035,0.113,0.078,-0.074,-0.022,0.095
0.035,0.105,0.07,-0.07,-0.018,0.087
0.031,0.093,0.062,-0.062,-0.016,0.077
0.03,0.084,0.054,-0.057,-0.012,0.069
0.028,0.074,0.046,-0.051,-0.009,0.06
0.024,0.063,0.039,-0.043,-0.008,0.05
0.02,0.055,0.035,-0.038,-0.008,0.045
0.012,0.043,0.031,-0.028,-0.009,0.037
0.004,0.033,0.03,-0.018,-0.013,0.031
-0.003,0.027,0.03,-0.012,-0.017,0.029
-0.005,0.025,0.03,-0.01,-0.018,0.027
-0.005,0.025,0.03,-0.01,-0.018,0.027
-0.01,0.021,0.03,-0.005,-0.02,0.026
-0.007,0.02,0.027,-0.007,-0.017,0.023
-0.006,0.018,0.024,-0.006,-0.016,0.021
-0.01,0.015,0.025,-0.003,-0.018,0.02
-0.01,0.015,0.025,-0.003,-0.018,0.02
-0.014,0.011,0.025,0.001,-0.02,0.017
-0.016,0.009,0.025,0.003,-0.021,0.017
-0.013,0.011,0.023,0.001,-0.018,0.017
-0.01,0.009,0.019,0.0,-0.014,0.014
-0.01,0.005,0.015,0.002,-0.013,0.01
-0.006,0.005,0.011,0.0,-0.009,0.008
-0.005,0.002,0.007,0.001,-0.006,0.004
-0.003,0.0,0.003,0.001,-0.003,0.001
0.0,-0.001,-0.001,0.0,0.001,-0.001
0.0,-0.005,-0.005,0.003,0.003,-0.005
0.004,-0.005,-0.009,0.0,0.007,-0.007
0.005,-0.008,-0.013,0.001,0.009,-0.01
0.005,-0.012,-0.017,0.003,0.011,-0.014
0.013,-0.008,-0.021,-0.002,0.017,-0.015
0.015,-0.01,-0.025,-0.002,0.02,-0.017
-0.015,-0.044,-0.029,0.03,0.007,-0.036
-0.016,-0.05,-0.034,0.033,0.009,-0.042
-0.01,-0.044,-0.034,0.027,0.012,-0.038
-0.015,-0.044,-0.029,0.03,0.008,-0.036
-0.01,-0.04,-0.03,0.025,0.01,-0.035
-0.01,-0.04,-0.031,0.025,0.01,-0.035
-0.01,-0.037,-0.027,0.024,0.009,-0.032
-0.01,-0.035,-0.025,0.023,0.008,-0.03
-0.009,-0.034,-0.025,0.022,0.008,-0.03
-0.005,-0.03,-0.025,0.018,0.01,-0.027
-0.005,-0.03,-0.025,0.018,0.01,-0.027
-0.005,-0.027,-0.022,0.016,0.009,-0.024
-0.005,-0.025,-0.019,0.015,0.008,-0.021
-0.004,-0.025,-0.02,0.014,0.008,-0.022
0.0,-0.02,-0.02,0.01,0.01,-0.02
0.0,-0.016,-0.016,0.008,0.008,-0.016
0.0,-0.015,-0.015,0.008,0.008,-0.015
0.001,-0.014,-0.015,0.007,0.008,-0.014
0.007,-0.008,-0.015,0.001,0.011,-0.011
0.01,-0.005,-0.015,-0.002,0.013,-0.01
0.001,-0.01,-0.011,0.004,0.006,-0.01
0.04,0.029,-0.01,-0.035,0.025,0.01
0.062,0.054,-0.008,-0.058,0.035,0.023
0.048,0.043,-0.005,-0.045,0.026,0.019
0.05,0.045,-0.005,-0.047,0.027,0.02
0.046,0.046,-0.001,-0.046,0.023,0.022
0.042,0.042,0.0,-0.042,0.021,0.021
0.038,0.039,0.002,-0.039,0.018,0.021
0.035,0.04,0.005,-0.038,0.015,0.022
0.035,0.04,0.005,-0.038,0.015,0.022
0.027,0.036,0.009,-0.032,0.008,0.022
0.022,0.032,0.01,-0.027,0.006,0.021
0.016,0.028,0.012,-0.022,0.002,0.02
0.009,0.024,0.015,-0.017,-0.004,0.019
0.005,0.02,0.015,-0.013,-0.005,0.017
-0.003,0.017,0.019,-0.007,-0.011,0.017
-0.009,0.011,0.02,-0.001,-0.015,0.015
0.007,0.029,0.022,-0.018,-0.007,0.025
0.027,0.052,0.026,-0.04,0.0,0.038
0.02,0.045,0.025,-0.033,-0.003,0.035
0.023,0.044,0.022,-0.034,0.0,0.033
0.03,0.046,0.016,-0.038,0.007,0.03
0.009,0.043,0.034,-0.026,-0.012,0.038
-0.018,0.04,0.058,-0.011,-0.038,0.048
-0.015,0.04,0.055,-0.013,-0.035,0.047
-0.015,0.04,0.055,-0.013,-0.035,0.047
-0.015,0.04,0.055,-0.013,-0.035,0.047
-0.017,0.038,0.055,-0.011,-0.036,0.046
-0.021,0.035,0.055,-0.008,-0.038,0.045
-0.02,0.035,0.055,-0.008,-0.038,0.045
-0.02,0.035,0.055,-0.008,-0.038,0.045
-0.023,0.032,0.055,-0.005,-0.039,0.043
-0.025,0.03,0.055,-0.003,-0.04,0.042
-0.025,0.03,0.055,-0.003,-0.04,0.042
-0.025,0.03,0.055,-0.003,-0.04,0.042
-0.025,0.03,0.055,-0.003,-0.04,0.042
-0.028,0.027,0.055,0.0,-0.042,0.041
-0.031,0.024,0.055,0.003,-0.044,0.04
-0.029,0.025,0.055,0.001,-0.042,0.04
-0.03,0.025,0.055,0.002,-0.043,0.04
-0.035,0.023,0.057,0.005,-0.046,0.04
0.001,0.043,0.042,-0.022,-0.021,0.042
0.008,0.061,0.052,-0.035,-0.022,0.056
-0.019,0.059,0.078,-0.021,-0.048,0.068
-0.015,0.055,0.07,-0.02,-0.043,0.062
-0.014,0.055,0.069,-0.021,-0.042,0.062
-0.019,0.052,0.071,-0.016,-0.045,0.061
-0.018,0.05,0.068,-0.016,-0.043,0.059
-0.015,0.049,0.065,-0.018,-0.04,0.056
-0.02,0.045,0.065,-0.013,-0.043,0.055
-0.021,0.045,0.065,-0.013,-0.044,0.055
-0.017,0.045,0.062,-0.015,-0.039,0.054
0.001,0.06,0.059,-0.031,-0.029,0.06
0.016,0.076,0.06,-0.046,-0.023,0.068
0.01,0.07,0.06,-0.04,-0.025,0.065
0.009,0.065,0.056,-0.038,-0.024,0.061
0.011,0.065,0.054,-0.039,-0.022,0.06
0.007,0.063,0.056,-0.036,-0.024,0.059
0.006,0.06,0.054,-0.033,-0.024,0.057
0.01,0.06,0.05,-0.035,-0.02,0.055
0.006,0.056,0.05,-0.031,-0.022,0.052
0.004,0.055,0.051,-0.03,-0.024,0.052
0.006,0.054,0.048,-0.03,-0.021,0.05
0.004,0.049,0.045,-0.027,-0.02,0.046
0.0,0.045,0.045,-0.023,-0.023,0.045
0.0,0.045,0.045,-0.023,-0.023,0.045
0.0,0.042,0.042,-0.021,-0.021,0.042
0.0,0.04,0.039,-0.02,-0.019,0.04
-0.001,0.039,0.04,-0.019,-0.021,0.04
-0.005,0.035,0.04,-0.015,-0.023,0.037
-0.004,0.035,0.04,-0.015,-0.023,0.037
-0.011,0.032,0.043,-0.011,-0.027,0.037
-0.016,0.029,0.046,-0.007,-0.031,0.037
-0.015,0.03,0.045,-0.008,-0.03,0.037
-0.015,0.03,0.045,-0.008,-0.03,0.037
-0.019,0.026,0.045,-0.004,-0.033,0.035
-0.02,0.024,0.044,-0.003,-0.033,0.035
-0.021,0.026,0.047,-0.002,-0.035,0.036
-0.026,0.024,0.05,0.001,-0.039,0.037
-0.03,0.02,0.05,0.005,-0.04,0.035
-0.03,0.02,0.05,0.005,-0.04,0.035
-0.029,0.021,0.05,0.004,-0.039,0.035
-0.033,0.018,0.051,0.007,-0.042,0.035
-0.025,0.023,0.048,0.001,-0.037,0.036
0.0,0.045,0.045,-0.023,-0.023,0.045
-0.003,0.064,0.066,-0.031,-0.035,0.065
-0.009,0.058,0.066,-0.024,-0.038,0.062
-0.012,0.045,0.057,-0.017,-0.034,0.051
-0.016,0.038,0.054,-0.012,-0.035,0.046
-0.02,0.03,0.05,-0.005,-0.035,0.04
-0.024,0.022,0.046,0.001,-0.035,0.033
-0.028,0.015,0.042,0.006,-0.035,0.028
-0.033,0.003,0.037,0.015,-0.035,0.02
-0.033,0.003,0.037,0.015,-0.035,0.019
-0.015,0.03,0.045,-0.008,-0.03,0.037
0.011,0.053,0.041,-0.032,-0.015,0.046
0.014,0.053,0.039,-0.034,-0.013,0.046
0.008,0.049,0.041,-0.029,-0.016,0.045
0.011,0.05,0.039,-0.031,-0.014,0.045
0.015,0.05,0.035,-0.033,-0.01,0.042
0.015,0.05,0.035,-0.033,-0.01,0.042
0.018,0.05,0.032,-0.034,-0.007,0.04
0.004,0.05,0.046,-0.028,-0.021,0.048
-0.019,0.049,0.068,-0.015,-0.044,0.058
-0.025,0.045,0.07,-0.01,-0.048,0.057
-0.025,0.045,0.07,-0.01,-0.048,0.057
-0.025,0.045,0.07,-0.01,-0.048,0.057
-0.025,0.045,0.07,-0.01,-0.048,0.057
-0.025,0.045,0.07,-0.01,-0.048,0.057
-0.025,0.045,0.07,-0.01,-0.048,0.057
-0.025,0.045,0.07,-0.01,-0.048,0.057
-0.028,0.042,0.07,-0.007,-0.049,0.056
-0.031,0.039,0.07,-0.004,-0.05,0.055
-0.03,0.04,0.07,-0.005,-0.05,0.055
-0.03,0.04,0.07,-0.005,-0.05,0.055
-0.03,0.04,0.07,-0.005,-0.05,0.055
-0.03,0.04,0.07,-0.005,-0.05,0.055
-0.031,0.039,0.07,-0.004,-0.051,0.055
-0.028,0.042,0.07,-0.007,-0.049,0.056
-0.025,0.045,0.07,-0.01,-0.048,0.057
-0.032,0.04,0.072,-0.004,-0.053,0.056
0.027,0.082,0.056,-0.055,-0.015,0.069
0.039,0.11,0.071,-0.075,-0.016,0.091
-0.006,0.098,0.103,-0.046,-0.055,0.1
0.0,0.095,0.095,-0.048,-0.048,0.095
-0.003,0.091,0.095,-0.044,-0.049,0.093
-0.006,0.087,0.092,-0.041,-0.049,0.089
-0.006,0.083,0.089,-0.038,-0.048,0.086
-0.012,0.079,0.09,-0.034,-0.051,0.085
-0.015,0.075,0.09,-0.03,-0.053,0.082
-0.011,0.075,0.086,-0.032,-0.049,0.08
-0.009,0.075,0.084,-0.033,-0.047,0.08
-0.01,0.076,0.086,-0.034,-0.048,0.081
0.007,0.091,0.084,-0.05,-0.039,0.088
0.045,0.125,0.08,-0.085,-0.018,0.102
0.069,0.149,0.08,-0.109,-0.005,0.114
0.062,0.143,0.081,-0.103,-0.009,0.111
0.052,0.13,0.078,-0.091,-0.014,0.104
0.049,0.123,0.074,-0.087,-0.013,0.099
0.04,0.115,0.075,-0.078,-0.018,0.095
0.031,0.107,0.076,-0.07,-0.023,0.091
0.029,0.099,0.07,-0.065,-0.021,0.084
0.031,0.091,0.061,-0.061,-0.016,0.076
0.029,0.082,0.053,-0.056,-0.012,0.067
0.025,0.07,0.045,-0.048,-0.01,0.057
0.021,0.062,0.041,-0.042,-0.01,0.052
0.016,0.051,0.034,-0.034,-0.009,0.042
0.015,0.041,0.026,-0.028,-0.006,0.033
0.014,0.032,0.018,-0.023,-0.002,0.025
0.01,0.02,0.01,-0.015,0.0,0.015
0.01,0.011,0.002,-0.01,0.004,0.007
0.012,0.007,-0.006,-0.01,0.009,0.001
0.018,0.003,-0.015,-0.011,0.016,-0.006
0.019,-0.001,-0.02,-0.009,0.02,-0.011
0.01,-0.005,-0.015,-0.002,0.013,-0.01
0.005,-0.009,-0.014,0.003,0.009,-0.011
0.01,-0.014,-0.023,0.002,0.017,-0.018
0.021,-0.015,-0.035,-0.003,0.029,-0.025
0.024,-0.016,-0.041,-0.004,0.033,-0.028
0.015,-0.025,-0.04,0.005,0.028,-0.032
0.007,-0.033,-0.04,0.013,0.024,-0.036
-0.001,-0.041,-0.04,0.021,0.02,-0.04
-0.009,-0.049,-0.04,0.029,0.016,-0.044
-0.017,-0.057,-0.04,0.037,0.012,-0.048
-0.025,-0.065,-0.04,0.045,0.008,-0.052
-0.036,-0.073,-0.038,0.054,0.002,-0.055
-0.022,-0.079,-0.056,0.051,0.017,-0.067
-0.016,-0.08,-0.064,0.049,0.024,-0.072
-0.027,-0.08,-0.053,0.054,0.013,-0.066
-0.03,-0.08,-0.05,0.055,0.01,-0.065
-0.038,-0.08,-0.042,0.059,0.002,-0.061
-0.043,-0.08,-0.037,0.062,-0.003,-0.058
-0.049,-0.081,-0.031,0.066,-0.009,-0.055
-0.055,-0.079,-0.024,0.067,-0.016,-0.051
-0.05,-0.07,-0.02,0.06,-0.015,-0.045
-0.046,-0.061,-0.016,0.054,-0.015,-0.038
-0.042,-0.057,-0.015,0.05,-0.014,-0.036
-0.036,-0.052,-0.015,0.045,-0.01,-0.033
-0.028,-0.043,-0.015,0.036,-0.006,-0.029
-0.02,-0.035,-0.015,0.028,-0.002,-0.025
-0.016,-0.031,-0.015,0.024,0.0,-0.023
-0.015,-0.027,-0.012,0.021,-0.001,-0.019
-0.016,-0.025,-0.009,0.02,-0.002,-0.017
-0.014,-0.024,-0.01,0.019,-0.002,-0.017
-0.01,-0.02,-0.01,0.015,0.0,-0.015
-0.01,-0.02,-0.01,0.015,0.0,-0.015
-0.009,-0.018,-0.009,0.013,0.0,-0.013
0.002,-0.013,-0.015,0.005,0.009,-0.013
0.009,-0.019,-0.028,0.005,0.019,-0.023
-0.005,-0.045,-0.04,0.025,0.018,-0.042
-0.016,-0.069,-0.053,0.043,0.018,-0.06
0.004,-0.057,-0.061,0.027,0.033,-0.059
0.048,-0.036,-0.085,-0.006,0.067,-0.06
0.088,-0.011,-0.099,-0.038,0.093,-0.055
0.11,0.03,-0.08,-0.07,0.095,-0.025
0.137,0.064,-0.072,-0.1,0.105,-0.005
0.175,0.158,-0.016,-0.167,0.095,0.071
0.23,0.294,0.064,-0.262,0.082,0.179
0.279,0.446,0.167,-0.363,0.056,0.306
0.32,0.63,0.31,-0.475,0.005,0.47
0.405,0.826,0.421,-0.616,-0.008,0.623
0.46,0.983,0.523,-0.722,-0.032,0.753
0.442,1.133,0.691,-0.788,-0.125,0.912
0.379,1.294,0.916,-0.836,-0.269,1.104
0.33,1.39,1.06,-0.86,-0.365,1.225
0.31,1.32,1.011,-0.815,-0.351,1.165
0.213,1.163,0.951,-0.688,-0.37,1.056
0.118,0.986,0.868,-0.552,-0.376,0.927
0.056,0.822,0.766,-0.439,-0.355,0.793
-0.05,0.675,0.725,-0.313,-0.388,0.7
-0.162,0.52,0.682,-0.179,-0.423,0.601
-0.197,0.399,0.596,-0.102,-0.397,0.497
-0.197,0.317,0.514,-0.06,-0.356,0.415
-0.189,0.247,0.436,-0.029,-0.313,0.341
-0.155,0.18,0.335,-0.013,-0.245,0.257
-0.153,0.128,0.281,0.013,-0.217,0.204
-0.156,0.075,0.231,0.04,-0.194,0.153
-0.137,0.045,0.182,0.046,-0.16,0.114
-0.101,0.038,0.139,0.031,-0.12,0.088
-0.075,0.025,0.1,0.025,-0.088,0.062
-0.078,0.012,0.091,0.033,-0.085,0.052
-0.08,0.004,0.084,0.038,-0.082,0.044
-0.083,-0.005,0.078,0.044,-0.08,0.036
-0.093,-0.019,0.074,0.055,-0.083,0.027
-0.095,-0.03,0.065,0.062,-0.08,0.017
-0.076,-0.02,0.056,0.047,-0.066,0.018
-0.055,-0.002,0.053,0.028,-0.054,0.025
-0.051,-0.006,0.045,0.029,-0.048,0.019
-0.064,-0.032,0.032,0.047,-0.048,0.001
-0.075,-0.05,0.025,0.062,-0.05,-0.012
-0.068,-0.051,0.017,0.059,-0.043,-0.016
-0.058,-0.049,0.009,0.053,-0.034,-0.02
-0.052,-0.051,0.001,0.051,-0.027,-0.024
-0.041,-0.049,-0.008,0.046,-0.017,-0.028
-0.035,-0.05,-0.015,0.043,-0.01,-0.032
-0.059,-0.067,-0.008,0.064,-0.025,-0.037
-0.073,-0.069,0.004,0.07,-0.038,-0.032
-0.063,-0.064,-0.001,0.063,-0.03,-0.032
-0.047,-0.065,-0.019,0.057,-0.014,-0.042
-0.035,-0.065,-0.03,0.05,-0.002,-0.047
-0.015,-0.061,-0.046,0.038,0.015,-0.053
0.002,-0.06,-0.061,0.029,0.031,-0.06
0.004,-0.06,-0.064,0.028,0.034,-0.062
-0.001,-0.06,-0.059,0.03,0.029,-0.06
0.0,-0.06,-0.06,0.03,0.03,-0.06
0.004,-0.056,-0.06,0.026,0.033,-0.058
0.006,-0.054,-0.06,0.024,0.033,-0.057
0.004,-0.056,-0.06,0.026,0.032,-0.057
0.006,-0.054,-0.061,0.024,0.034,-0.057
0.01,-0.05,-0.06,0.02,0.035,-0.055
-0.002,-0.05,-0.048,0.026,0.023,-0.049
-0.011,-0.05,-0.039,0.031,0.014,-0.044
-0.021,-0.051,-0.029,0.036,0.004,-0.04
-0.031,-0.049,-0.018,0.04,-0.007,-0.033
-0.03,-0.04,-0.01,0.035,-0.01,-0.025
-0.034,-0.032,0.002,0.032,-0.018,-0.015
-0.036,-0.024,0.012,0.03,-0.024,-0.005
-0.032,-0.016,0.016,0.023,-0.024,0.0
-0.023,-0.008,0.015,0.015,-0.019,0.003
-0.015,0.0,0.015,0.007,-0.015,0.007
-0.012,0.004,0.016,0.004,-0.014,0.01
-0.001,0.011,0.011,-0.006,-0.007,0.011
-0.01,0.018,0.028,-0.005,-0.019,0.023
-0.034,0.019,0.054,0.007,-0.044,0.037
-0.04,0.015,0.055,0.012,-0.048,0.035
-0.04,0.015,0.055,0.012,-0.048,0.035
-0.04,0.015,0.055,0.012,-0.048,0.035
-0.04,0.015,0.055,0.012,-0.048,0.035
-0.04,0.015,0.055,0.012,-0.048,0.035
-0.04,0.015,0.055,0.012,-0.048,0.035
-0.04,0.015,0.055,0.012,-0.048,0.035
-0.037,0.018,0.055,0.009,-0.046,0.036
-0.033,0.022,0.055,0.005,-0.044,0.038
-0.029,0.026,0.055,0.001,-0.042,0.04
-0.025,0.03,0.055,-0.003,-0.04,0.042
-0.021,0.034,0.055,-0.007,-0.038,0.044
-0.017,0.038,0.055,-0.011,-0.036,0.046
-0.013,0.042,0.055,-0.015,-0.034,0.048
-0.009,0.046,0.055,-0.019,-0.032,0.05
-0.005,0.05,0.055,-0.023,-0.03,0.052
-0.007,0.05,0.057,-0.022,-0.032,0.053
0.01,0.055,0.045,-0.033,-0.018,0.05
0.008,0.065,0.056,-0.037,-0.024,0.06
-0.005,0.071,0.076,-0.034,-0.041,0.073
0.01,0.075,0.065,-0.043,-0.028,0.07
0.019,0.079,0.06,-0.049,-0.021,0.07
0.02,0.081,0.062,-0.05,-0.021,0.071
0.006,0.093,0.086,-0.049,-0.041,0.089
-0.006,0.107,0.113,-0.051,-0.06,0.11
0.0,0.11,0.11,-0.055,-0.055,0.11
0.0,0.11,0.11,-0.055,-0.055,0.11
0.0,0.11,0.11,-0.055,-0.055,0.11
0.0,0.11,0.11,-0.055,-0.055,0.11
0.0,0.11,0.11,-0.055,-0.055,0.11
0.0,0.11,0.11,-0.055,-0.055,0.11
0.001,0.111,0.11,-0.056,-0.054,0.111
-0.006,0.104,0.11,-0.049,-0.058,0.107
0.004,0.114,0.11,-0.059,-0.054,0.111
0.032,0.142,0.11,-0.087,-0.039,0.126
0.05,0.16,0.11,-0.105,-0.03,0.135
0.047,0.157,0.11,-0.102,-0.032,0.133
0.044,0.154,0.11,-0.099,-0.034,0.131
0.046,0.156,0.11,-0.101,-0.032,0.132
0.044,0.154,0.11,-0.099,-0.034,0.131
0.045,0.155,0.11,-0.1,-0.033,0.132
0.073,0.182,0.109,-0.128,-0.018,0.145
0.089,0.208,0.118,-0.149,-0.015,0.163
0.09,0.219,0.129,-0.155,-0.02,0.174
0.099,0.228,0.129,-0.164,-0.015,0.178
0.115,0.245,0.13,-0.18,-0.008,0.187
0.103,0.258,0.155,-0.18,-0.026,0.207
0.104,0.263,0.159,-0.184,-0.028,0.211
0.114,0.268,0.154,-0.191,-0.02,0.21
0.114,0.27,0.155,-0.192,-0.02,0.212
0.115,0.27,0.155,-0.193,-0.02,0.212
0.131,0.286,0.155,-0.209,-0.012,0.22
0.142,0.297,0.155,-0.22,-0.007,0.225
0.151,0.305,0.154,-0.228,-0.002,0.229
0.163,0.319,0.157,-0.241,0.002,0.238
0.165,0.335,0.17,-0.25,-0.003,0.252
0.153,0.34,0.187,-0.247,-0.017,0.263
0.145,0.339,0.194,-0.242,-0.025,0.267
0.147,0.343,0.195,-0.246,-0.024,0.268
0.149,0.344,0.195,-0.247,-0.023,0.27
0.15,0.345,0.195,-0.248,-0.023,0.27
0.171,0.366,0.195,-0.269,-0.012,0.28
0.175,0.37,0.195,-0.273,-0.01,0.282
0.183,0.378,0.196,-0.281,-0.007,0.287
0.204,0.398,0.194,-0.302,0.005,0.296
0.205,0.4,0.195,-0.303,0.005,0.297
0.181,0.4,0.219,-0.291,-0.019,0.309
0.166,0.4,0.233,-0.284,-0.033,0.316
0.164,0.401,0.237,-0.283,-0.037,0.319
0.157,0.397,0.24,-0.277,-0.041,0.319
0.16,0.395,0.235,-0.278,-0.038,0.315
0.203,0.433,0.23,-0.318,-0.014,0.332
0.208,0.439,0.23,-0.323,-0.011,0.335
0.196,0.424,0.228,-0.311,-0.016,0.326
0.194,0.418,0.225,-0.306,-0.016,0.321
0.185,0.41,0.225,-0.298,-0.02,0.317
0.181,0.402,0.221,-0.292,-0.02,0.311
0.174,0.394,0.22,-0.284,-0.023,0.307
0.169,0.388,0.219,-0.278,-0.025,0.303
0.17,0.384,0.214,-0.278,-0.022,0.299
0.17,0.38,0.21,-0.275,-0.02,0.295
0.166,0.376,0.21,-0.271,-0.023,0.293
0.164,0.371,0.207,-0.268,-0.022,0.288
0.166,0.371,0.205,-0.269,-0.019,0.287
0.163,0.367,0.204,-0.266,-0.02,0.285
0.15,0.35,0.2,-0.25,-0.025,0.275
0.133,0.334,0.201,-0.233,-0.034,0.267
0.126,0.318,0.192,-0.222,-0.033,0.255
0.122,0.302,0.18,-0.213,-0.029,0.241
0.112,0.285,0.173,-0.199,-0.031,0.229
0.1,0.265,0.165,-0.183,-0.033,0.215
0.092,0.245,0.153,-0.168,-0.031,0.199
0.083,0.227,0.144,-0.155,-0.03,0.185
0.078,0.214,0.136,-0.146,-0.029,0.175
0.073,0.201,0.129,-0.137,-0.029,0.164
0.06,0.185,0.125,-0.123,-0.033,0.155
0.053,0.173,0.121,-0.113,-0.034,0.147
0.038,0.158,0.12,-0.098,-0.041,0.139
0.025,0.143,0.118,-0.084,-0.047,0.131
0.018,0.132,0.115,-0.076,-0.049,0.124
0.005,0.12,0.115,-0.063,-0.055,0.117
-0.006,0.105,0.111,-0.05,-0.059,0.107
0.007,0.117,0.11,-0.062,-0.052,0.113
0.017,0.126,0.109,-0.072,-0.046,0.117
0.015,0.118,0.104,-0.067,-0.045,0.11
0.015,0.115,0.1,-0.065,-0.043,0.107
0.011,0.111,0.1,-0.061,-0.045,0.106
0.01,0.107,0.097,-0.059,-0.044,0.102
0.008,0.103,0.095,-0.056,-0.044,0.099
0.005,0.099,0.094,-0.052,-0.045,0.096
0.005,0.095,0.09,-0.05,-0.043,0.092
0.0,0.091,0.09,-0.045,-0.045,0.09
0.003,0.09,0.087,-0.046,-0.042,0.088
0.006,0.09,0.084,-0.048,-0.039,0.087
0.005,0.09,0.085,-0.048,-0.04,0.087
0.005,0.09,0.085,-0.048,-0.04,0.087
0.004,0.09,0.085,-0.048,-0.04,0.087
0.009,0.091,0.082,-0.05,-0.037,0.086
0.009,0.088,0.079,-0.048,-0.036,0.084
0.005,0.085,0.08,-0.045,-0.038,0.082
0.005,0.085,0.08,-0.045,-0.038,0.082
0.005,0.085,0.08,-0.045,-0.038,0.082
0.008,0.085,0.077,-0.047,-0.035,0.081
0.01,0.085,0.074,-0.048,-0.032,0.08
0.01,0.085,0.075,-0.048,-0.033,0.08
0.01,0.085,0.075,-0.048,-0.033,0.08
0.006,0.081,0.075,-0.044,-0.035,0.077
0.004,0.08,0.076,-0.042,-0.036,0.077
0.007,0.08,0.073,-0.044,-0.033,0.076
0.01,0.08,0.07,-0.045,-0.03,0.075
0.01,0.08,0.07,-0.045,-0.03,0.075
0.01,0.08,0.07,-0.045,-0.03,0.075
0.01,0.081,0.071,-0.045,-0.03,0.076
0.01,0.078,0.068,-0.044,-0.029,0.073
0.01,0.075,0.065,-0.043,-0.028,0.07
0.01,0.075,0.065,-0.043,-0.028,0.07
0.01,0.075,0.065,-0.043,-0.028,0.07
0.007,0.072,0.065,-0.04,-0.029,0.068
0.005,0.07,0.065,-0.038,-0.03,0.066
0.004,0.07,0.066,-0.038,-0.031,0.068
0.0,0.07,0.07,-0.035,-0.035,0.07
0.001,0.07,0.07,-0.035,-0.035,0.07
-0.006,0.067,0.073,-0.031,-0.04,0.07
-0.012,0.064,0.076,-0.027,-0.044,0.07
-0.009,0.065,0.074,-0.029,-0.042,0.07
-0.005,0.065,0.07,-0.03,-0.038,0.067
-0.009,0.061,0.07,-0.026,-0.04,0.065
-0.007,0.06,0.067,-0.026,-0.037,0.063
-0.004,0.06,0.064,-0.028,-0.034,0.062
-0.005,0.06,0.065,-0.028,-0.035,0.062
-0.005,0.06,0.065,-0.028,-0.035,0.062
-0.005,0.056,0.061,-0.026,-0.033,0.058
-0.005,0.055,0.06,-0.024,-0.033,0.057
-0.003,0.055,0.058,-0.026,-0.031,0.056
0.001,0.055,0.054,-0.028,-0.027,0.055
0.0,0.055,0.055,-0.028,-0.028,0.055
-0.005,0.051,0.055,-0.024,-0.03,0.053
-0.002,0.05,0.052,-0.024,-0.027,0.051
0.0,0.048,0.048,-0.024,-0.024,0.048
0.001,0.045,0.044,-0.023,-0.022,0.044
0.005,0.045,0.04,-0.025,-0.018,0.042
0.005,0.041,0.036,-0.023,-0.016,0.038
0.008,0.04,0.032,-0.024,-0.012,0.036
0.011,0.038,0.027,-0.025,-0.008,0.033
0.009,0.035,0.025,-0.022,-0.009,0.03
0.005,0.035,0.03,-0.02,-0.013,0.032
0.001,0.031,0.03,-0.016,-0.015,0.03
0.0,0.03,0.03,-0.015,-0.015,0.03
-0.002,0.028,0.03,-0.013,-0.016,0.029
-0.005,0.025,0.03,-0.01,-0.018,0.027
-0.005,0.025,0.03,-0.01,-0.018,0.027
-0.01,0.021,0.03,-0.006,-0.02,0.026
-0.007,0.02,0.027,-0.007,-0.017,0.023
-0.004,0.019,0.023,-0.008,-0.014,0.02
-0.005,0.014,0.019,-0.004,-0.013,0.016
-0.005,0.01,0.015,-0.003,-0.01,0.012
-0.001,0.01,0.011,-0.005,-0.006,0.011
0.001,0.008,0.007,-0.004,-0.003,0.007
-0.001,0.002,0.003,-0.001,-0.003,0.003
0.002,0.0,-0.002,-0.001,0.002,-0.001
0.01,0.0,-0.01,-0.005,0.01,-0.005
0.006,-0.008,-0.014,0.001,0.01,-0.01
0.007,-0.014,-0.021,0.004,0.014,-0.017
0.012,-0.016,-0.028,0.002,0.021,-0.022
0.008,-0.022,-0.029,0.007,0.018,-0.026
-0.005,-0.03,-0.025,0.018,0.01,-0.027
-0.009,-0.034,-0.025,0.022,0.008,-0.029
-0.013,-0.038,-0.025,0.026,0.006,-0.031
-0.017,-0.042,-0.025,0.03,0.004,-0.033
-0.02,-0.045,-0.025,0.033,0.003,-0.035
-0.02,-0.045,-0.025,0.033,0.003,-0.035
-0.02,-0.045,-0.025,0.033,0.003,-0.035
-0.02,-0.045,-0.025,0.033,0.003,-0.035
-0.02,-0.045,-0.025,0.033,0.003,-0.035
-0.02,-0.045,-0.025,0.033,0.003,-0.035
-0.02,-0.045,-0.025,0.033,0.003,-0.035
-0.022,-0.045,-0.023,0.034,0.001,-0.034
-0.005,-0.045,-0.04,0.025,0.018,-0.042
0.01,-0.045,-0.055,0.018,0.033,-0.049
0.01,-0.045,-0.055,0.018,0.033,-0.05
0.01,-0.045,-0.055,0.018,0.033,-0.05
0.01,-0.045,-0.055,0.018,0.033,-0.05
0.01,-0.045,-0.055,0.018,0.033,-0.05
0.01,-0.045,-0.055,0.018,0.033,-0.05
0.01,-0.045,-0.055,0.018,0.033,-0.05
0.01,-0.045,-0.055,0.018,0.033,-0.05
0.01,-0.045,-0.055,0.018,0.033,-0.05
0.01,-0.045,-0.055,0.018,0.033,-0.05
0.01,-0.045,-0.055,0.018,0.033,-0.05
0.01,-0.045,-0.055,0.018,0.033,-0.05
0.01,-0.045,-0.055,0.018,0.033,-0.05
0.01,-0.045,-0.055,0.018,0.033,-0.05
0.01,-0.045,-0.055,0.018,0.033,-0.05
0.01,-0.045,-0.055,0.018,0.033,-0.05
0.01,-0.045,-0.055,0.018,0.033,-0.05
0.01,-0.045,-0.055,0.018,0.033,-0.05
0.002,-0.049,-0.051,0.024,0.026,-0.05
-0.001,-0.051,-0.05,0.026,0.024,-0.05
0.002,-0.048,-0.05,0.023,0.026,-0.049
0.005,-0.045,-0.05,0.02,0.028,-0.047
0.005,-0.045,-0.05,0.02,0.028,-0.047
0.005,-0.045,-0.051,0.02,0.028,-0.047
0.006,-0.042,-0.047,0.018,0.027,-0.045
0.02,-0.039,-0.059,0.01,0.039,-0.049
0.038,-0.04,-0.078,0.002,0.058,-0.059
0.04,-0.04,-0.08,0.0,0.06,-0.06
0.043,-0.037,-0.08,-0.003,0.062,-0.058
0.054,-0.026,-0.08,-0.014,0.067,-0.053
0.031,-0.049,-0.08,0.009,0.056,-0.064
-0.004,-0.084,-0.08,0.044,0.038,-0.082
0.0,-0.08,-0.08,0.04,0.04,-0.08
0.0,-0.079,-0.08,0.04,0.04,-0.08
0.003,-0.08,-0.083,0.039,0.043,-0.081
0.006,-0.08,-0.086,0.038,0.046,-0.082
0.005,-0.08,-0.085,0.038,0.045,-0.082
0.005,-0.08,-0.085,0.038,0.045,-0.082
0.005,-0.08,-0.085,0.038,0.045,-0.082
0.002,-0.083,-0.085,0.041,0.043,-0.084
-0.016,-0.101,-0.085,0.059,0.035,-0.093
-0.032,-0.117,-0.085,0.075,0.027,-0.101
-0.03,-0.115,-0.085,0.073,0.028,-0.1
-0.03,-0.115,-0.085,0.073,0.028,-0.1
-0.03,-0.115,-0.085,0.073,0.028,-0.1
-0.03,-0.115,-0.085,0.073,0.028,-0.1
-0.029,-0.115,-0.086,0.073,0.029,-0.1
-0.025,-0.115,-0.09,0.07,0.033,-0.102
-0.025,-0.115,-0.09,0.07,0.033,-0.102
-0.026,-0.115,-0.089,0.07,0.032,-0.102
-0.023,-0.115,-0.092,0.069,0.035,-0.103
-0.02,-0.115,-0.095,0.068,0.038,-0.105
-0.02,-0.115,-0.095,0.068,0.038,-0.105
-0.019,-0.115,-0.096,0.068,0.039,-0.106
-0.026,-0.115,-0.089,0.07,0.032,-0.102
-0.016,-0.115,-0.099,0.066,0.042,-0.106
0.003,-0.115,-0.118,0.056,0.061,-0.117
0.005,-0.115,-0.12,0.055,0.063,-0.117
0.005,-0.115,-0.12,0.055,0.063,-0.117
0.002,-0.118,-0.12,0.058,0.061,-0.119
-0.001,-0.121,-0.12,0.061,0.06,-0.12
-0.009,-0.129,-0.12,0.069,0.056,-0.124
-0.025,-0.145,-0.12,0.085,0.048,-0.132
-0.018,-0.138,-0.12,0.078,0.052,-0.129
-0.012,-0.128,-0.117,0.07,0.053,-0.122
-0.006,-0.121,-0.115,0.064,0.055,-0.118
0.001,-0.113,-0.114,0.056,0.058,-0.114
0.005,-0.105,-0.11,0.05,0.058,-0.107
0.013,-0.097,-0.11,0.042,0.062,-0.103
0.022,-0.089,-0.111,0.033,0.067,-0.099
0.025,-0.083,-0.108,0.029,0.067,-0.095
0.026,-0.079,-0.105,0.027,0.065,-0.091
0.03,-0.075,-0.105,0.023,0.068,-0.09
0.029,-0.071,-0.101,0.021,0.065,-0.086
0.034,-0.066,-0.099,0.016,0.066,-0.083
0.017,-0.084,-0.101,0.034,0.059,-0.092
-0.008,-0.107,-0.099,0.058,0.046,-0.103
-0.005,-0.1,-0.095,0.053,0.045,-0.097
-0.005,-0.1,-0.095,0.053,0.045,-0.097
-0.001,-0.097,-0.096,0.05,0.047,-0.096
-0.002,-0.095,-0.093,0.049,0.046,-0.094
-0.005,-0.094,-0.09,0.049,0.043,-0.091
0.0,-0.09,-0.09,0.045,0.045,-0.09
0.0,-0.09,-0.09,0.045,0.045,-0.09
0.0,-0.087,-0.087,0.044,0.044,-0.087
-0.001,-0.085,-0.084,0.043,0.043,-0.085
0.001,-0.084,-0.085,0.042,0.044,-0.085
0.005,-0.08,-0.085,0.038,0.045,-0.082
0.001,-0.08,-0.081,0.04,0.041,-0.08
0.002,-0.077,-0.079,0.037,0.041,-0.078
0.006,-0.074,-0.081,0.034,0.044,-0.077
0.004,-0.075,-0.079,0.036,0.042,-0.077
0.0,-0.075,-0.075,0.038,0.038,-0.075
0.0,-0.075,-0.075,0.038,0.038,-0.075
0.001,-0.075,-0.076,0.037,0.039,-0.075
-0.003,-0.076,-0.073,0.04,0.036,-0.074
-0.004,-0.074,-0.07,0.039,0.033,-0.071
0.005,-0.065,-0.07,0.03,0.038,-0.067
0.01,-0.061,-0.07,0.025,0.04,-0.065
0.01,-0.058,-0.067,0.024,0.039,-0.063
0.012,-0.051,-0.063,0.02,0.038,-0.057
0.016,-0.043,-0.059,0.014,0.038,-0.051
0.015,-0.04,-0.055,0.013,0.035,-0.047
0.014,-0.037,-0.051,0.011,0.033,-0.043
0.021,-0.026,-0.047,0.003,0.034,-0.036
0.028,-0.015,-0.044,-0.006,0.036,-0.029
0.029,-0.008,-0.038,-0.011,0.033,-0.023
0.025,0.0,-0.025,-0.012,0.025,-0.012
0.025,0.008,-0.017,-0.016,0.021,-0.004
0.025,0.016,-0.009,-0.02,0.017,0.003
0.026,0.025,-0.001,-0.025,0.013,0.011
0.023,0.03,0.007,-0.027,0.008,0.018
0.01,0.025,0.015,-0.018,-0.003,0.02
-0.002,0.022,0.024,-0.01,-0.014,0.023
0.022,0.044,0.023,-0.033,-0.001,0.033
0.038,0.057,0.019,-0.047,0.009,0.038
0.046,0.066,0.02,-0.056,0.013,0.043
0.075,0.095,0.02,-0.085,0.027,0.057
0.072,0.092,0.02,-0.082,0.026,0.056
0.069,0.089,0.02,-0.079,0.025,0.055
0.069,0.088,0.02,-0.078,0.024,0.054
0.064,0.085,0.02,-0.075,0.022,0.052
0.065,0.085,0.02,-0.075,0.022,0.052
0.065,0.081,0.016,-0.073,0.024,0.048
0.066,0.08,0.015,-0.073,0.026,0.047
0.063,0.078,0.015,-0.071,0.024,0.046
0.06,0.075,0.015,-0.068,0.022,0.045
0.06,0.075,0.015,-0.068,0.022,0.045
0.056,0.071,0.015,-0.064,0.02,0.042
0.056,0.071,0.015,-0.064,0.021,0.042
0.05,0.065,0.015,-0.058,0.017,0.04
0.038,0.052,0.014,-0.046,0.012,0.033
0.035,0.045,0.01,-0.04,0.012,0.027
0.027,0.037,0.01,-0.032,0.008,0.023
0.022,0.029,0.007,-0.026,0.007,0.018
0.016,0.021,0.005,-0.019,0.005,0.013
0.008,0.013,0.004,-0.011,0.002,0.008
0.005,0.005,0.0,-0.005,0.002,0.002
0.001,0.001,0.0,-0.001,0.001,0.0
-0.004,-0.003,0.001,0.004,-0.002,-0.001
-0.003,-0.005,-0.002,0.004,0.0,-0.003
-0.001,-0.006,-0.005,0.004,0.003,-0.005
-0.005,-0.01,-0.005,0.008,0.0,-0.007
-0.001,-0.01,-0.009,0.005,0.004,-0.009
-0.003,-0.013,-0.01,0.008,0.004,-0.011
-0.003,-0.015,-0.012,0.01,0.005,-0.013
0.0,-0.015,-0.015,0.008,0.008,-0.015
-0.005,-0.02,-0.015,0.013,0.005,-0.017
-0.009,-0.025,-0.016,0.017,0.004,-0.02
-0.018,-0.025,-0.007,0.021,-0.005,-0.016
-0.033,-0.027,0.006,0.03,-0.019,-0.01
-0.04,-0.03,0.01,0.035,-0.025,-0.01
-0.035,-0.03,0.005,0.032,-0.02,-0.012
-0.039,-0.034,0.005,0.036,-0.022,-0.014
-0.038,-0.036,0.002,0.037,-0.019,-0.017
-0.033,-0.033,0.0,0.033,-0.016,-0.016
-0.029,-0.03,-0.001,0.029,-0.014,-0.015
-0.025,-0.03,-0.005,0.028,-0.01,-0.017
-0.026,-0.031,-0.005,0.029,-0.011,-0.017
-0.019,-0.027,-0.008,0.023,-0.006,-0.018
-0.03,-0.04,-0.01,0.035,-0.01,-0.025
-0.046,-0.057,-0.011,0.051,-0.017,-0.033
-0.035,-0.05,-0.015,0.043,-0.01,-0.032
-0.031,-0.045,-0.015,0.038,-0.008,-0.03
-0.027,-0.045,-0.018,0.036,-0.004,-0.031
-0.024,-0.044,-0.02,0.034,-0.002,-0.031
-0.017,-0.038,-0.021,0.028,0.002,-0.03
-0.01,-0.035,-0.025,0.023,0.008,-0.03
-0.016,-0.037,-0.021,0.027,0.003,-0.029
0.036,-0.021,-0.056,-0.007,0.046,-0.038
0.042,-0.037,-0.078,-0.002,0.06,-0.057
0.001,-0.067,-0.068,0.033,0.035,-0.067
0.02,-0.05,-0.07,0.015,0.045,-0.06
0.025,-0.042,-0.067,0.009,0.046,-0.054
0.03,-0.03,-0.06,0.001,0.046,-0.045
0.055,-0.024,-0.079,-0.015,0.068,-0.051
0.087,-0.006,-0.093,-0.04,0.091,-0.05
0.115,0.05,-0.065,-0.082,0.09,-0.007
0.17,0.125,-0.045,-0.147,0.107,0.04
0.259,0.248,-0.011,-0.254,0.135,0.119
0.295,0.404,0.11,-0.35,0.092,0.257
0.306,0.575,0.269,-0.441,0.018,0.421
0.4,0.765,0.365,-0.583,0.017,0.565
0.5,0.954,0.453,-0.727,0.023,0.703
0.491,1.106,0.615,-0.799,-0.062,0.861
0.464,1.292,0.828,-0.878,-0.182,1.06
0.407,1.404,0.997,-0.906,-0.295,1.2
0.275,1.325,1.05,-0.8,-0.388,1.187
0.267,1.273,1.006,-0.77,-0.369,1.139
0.245,1.128,0.883,-0.687,-0.319,1.005
0.151,0.959,0.809,-0.555,-0.329,0.884
0.031,0.842,0.811,-0.437,-0.39,0.827
-0.065,0.725,0.79,-0.33,-0.428,0.757
-0.127,0.586,0.714,-0.229,-0.421,0.65
-0.171,0.443,0.614,-0.137,-0.392,0.528
-0.16,0.327,0.487,-0.084,-0.324,0.407
-0.116,0.248,0.364,-0.066,-0.24,0.305
-0.105,0.185,0.29,-0.04,-0.198,0.237
-0.117,0.121,0.238,-0.002,-0.177,0.179
-0.089,0.097,0.185,-0.005,-0.137,0.141
-0.063,0.092,0.155,-0.015,-0.109,0.123
-0.066,0.083,0.149,-0.009,-0.108,0.115
-0.065,0.075,0.14,-0.005,-0.103,0.107
-0.069,0.063,0.132,0.003,-0.1,0.097
-0.072,0.054,0.125,0.009,-0.098,0.09
-0.066,0.046,0.111,0.01,-0.088,0.078
-0.051,0.039,0.089,0.006,-0.07,0.064
-0.035,0.035,0.07,0.0,-0.053,0.052
-0.026,0.031,0.057,-0.003,-0.042,0.044
-0.023,0.026,0.049,-0.002,-0.036,0.038
-0.014,0.025,0.039,-0.006,-0.027,0.032
-0.003,0.024,0.028,-0.011,-0.016,0.026
0.0,0.02,0.02,-0.01,-0.01,0.02
0.007,0.016,0.008,-0.012,-0.001,0.012
0.019,0.015,-0.004,-0.017,0.011,0.005
0.012,0.014,0.002,-0.012,0.005,0.008
-0.017,0.009,0.026,0.004,-0.022,0.017
-0.035,0.005,0.04,0.015,-0.038,0.022
-0.023,0.005,0.029,0.009,-0.027,0.017
-0.016,0.002,0.019,0.006,-0.018,0.01
-0.011,-0.002,0.009,0.007,-0.01,0.003
-0.004,-0.006,-0.002,0.005,0.0,-0.004
0.0,-0.01,-0.01,0.005,0.005,-0.01
0.008,-0.014,-0.022,0.004,0.016,-0.018
0.015,-0.015,-0.03,0.001,0.023,-0.022
0.028,-0.016,-0.044,-0.005,0.036,-0.03
0.034,-0.021,-0.055,-0.006,0.045,-0.038
0.02,-0.025,-0.045,0.003,0.033,-0.035
0.012,-0.029,-0.04,0.009,0.026,-0.035
0.004,-0.034,-0.038,0.015,0.021,-0.036
-0.004,-0.035,-0.031,0.02,0.014,-0.033
-0.012,-0.036,-0.024,0.024,0.006,-0.03
-0.02,-0.04,-0.02,0.03,0.0,-0.03
-0.024,-0.041,-0.016,0.033,-0.004,-0.028
-0.028,-0.037,-0.009,0.033,-0.009,-0.023
-0.03,-0.033,-0.002,0.032,-0.014,-0.018
-0.03,-0.029,0.001,0.029,-0.015,-0.014
-0.03,-0.025,0.005,0.027,-0.017,-0.01
-0.03,-0.021,0.009,0.025,-0.019,-0.006
-0.031,-0.017,0.014,0.024,-0.022,-0.002
-0.027,-0.013,0.014,0.02,-0.02,0.001
-0.035,-0.009,0.026,0.022,-0.031,0.009
-0.06,-0.005,0.055,0.032,-0.057,0.025
-0.053,-0.001,0.052,0.027,-0.053,0.026
-0.046,0.003,0.049,0.021,-0.048,0.026
-0.044,0.007,0.05,0.018,-0.047,0.028
-0.039,0.011,0.05,0.014,-0.044,0.031
-0.035,0.015,0.05,0.01,-0.043,0.032
-0.036,0.014,0.05,0.011,-0.043,0.032
-0.027,0.023,0.05,0.002,-0.039,0.036
-0.013,0.037,0.05,-0.012,-0.031,0.044
-0.004,0.046,0.05,-0.021,-0.028,0.047
-0.005,0.045,0.05,-0.02,-0.028,0.047
-0.005,0.045,0.05,-0.02,-0.028,0.047
-0.005,0.045,0.05,-0.02,-0.028,0.047
-0.005,0.045,0.05,-0.02,-0.028,0.047
-0.005,0.045,0.05,-0.02,-0.028,0.047
-0.005,0.045,0.05,-0.02,-0.028,0.047
-0.004,0.047,0.05,-0.021,-0.028,0.048
-0.012,0.036,0.048,-0.012,-0.031,0.041
-0.012,0.046,0.058,-0.017,-0.035,0.051
-0.004,0.068,0.072,-0.032,-0.038,0.069
-0.01,0.06,0.07,-0.025,-0.04,0.065
-0.016,0.053,0.069,-0.018,-0.043,0.061
-0.003,0.073,0.076,-0.035,-0.04,0.074
0.007,0.091,0.084,-0.049,-0.039,0.087
-0.004,0.089,0.093,-0.043,-0.049,0.091
-0.015,0.09,0.105,-0.038,-0.06,0.097
0.0,0.106,0.106,-0.054,-0.053,0.105
0.012,0.115,0.103,-0.064,-0.046,0.109
0.002,0.114,0.112,-0.059,-0.055,0.113
-0.003,0.126,0.129,-0.062,-0.066,0.127
0.015,0.155,0.14,-0.085,-0.063,0.147
0.012,0.156,0.145,-0.085,-0.067,0.15
0.009,0.154,0.145,-0.082,-0.068,0.15
0.01,0.155,0.145,-0.083,-0.068,0.15
0.011,0.155,0.144,-0.083,-0.067,0.15
0.01,0.155,0.145,-0.083,-0.068,0.15
-0.006,0.156,0.161,-0.076,-0.084,0.159
-0.018,0.151,0.17,-0.067,-0.095,0.16
-0.002,0.168,0.17,-0.083,-0.086,0.168
0.024,0.195,0.17,-0.11,-0.073,0.182
0.03,0.2,0.17,-0.115,-0.07,0.185
0.034,0.204,0.17,-0.119,-0.068,0.186
0.035,0.208,0.173,-0.122,-0.069,0.19
0.035,0.211,0.176,-0.123,-0.07,0.193
0.035,0.21,0.175,-0.123,-0.07,0.192
0.035,0.21,0.175,-0.123,-0.07,0.192
0.039,0.214,0.175,-0.127,-0.068,0.195
0.041,0.216,0.174,-0.129,-0.067,0.195
0.037,0.214,0.177,-0.126,-0.07,0.195
0.036,0.216,0.18,-0.126,-0.073,0.198
0.045,0.225,0.18,-0.135,-0.068,0.202
0.061,0.241,0.18,-0.151,-0.06,0.21
0.077,0.258,0.181,-0.168,-0.052,0.219
0.092,0.27,0.178,-0.181,-0.044,0.224
0.093,0.276,0.183,-0.184,-0.046,0.229
0.08,0.28,0.2,-0.18,-0.06,0.24
0.088,0.289,0.201,-0.189,-0.056,0.245
0.09,0.29,0.2,-0.19,-0.055,0.244
0.109,0.309,0.2,-0.209,-0.046,0.254
0.115,0.323,0.209,-0.219,-0.048,0.266
0.085,0.31,0.225,-0.198,-0.07,0.267
0.118,0.343,0.226,-0.231,-0.054,0.284
0.123,0.348,0.225,-0.236,-0.051,0.287
0.129,0.352,0.223,-0.241,-0.047,0.288
0.153,0.382,0.229,-0.268,-0.039,0.306
0.15,0.4,0.25,-0.275,-0.05,0.325
0.149,0.396,0.247,-0.273,-0.049,0.322
0.151,0.395,0.244,-0.273,-0.047,0.319
0.148,0.394,0.245,-0.271,-0.049,0.319
0.144,0.389,0.245,-0.267,-0.05,0.316
0.145,0.39,0.245,-0.268,-0.05,0.317
0.154,0.4,0.246,-0.277,-0.046,0.323
0.185,0.425,0.241,-0.306,-0.028,0.333
0.175,0.436,0.261,-0.306,-0.043,0.348
0.141,0.429,0.288,-0.286,-0.073,0.358
0.15,0.43,0.28,-0.29,-0.065,0.355
0.152,0.432,0.28,-0.292,-0.064,0.355
0.175,0.452,0.277,-0.313,-0.052,0.364
0.185,0.459,0.275,-0.323,-0.045,0.367
0.173,0.447,0.274,-0.311,-0.051,0.36
0.17,0.44,0.27,-0.305,-0.05,0.355
0.162,0.432,0.27,-0.297,-0.054,0.351
0.157,0.424,0.267,-0.291,-0.055,0.345
0.151,0.415,0.265,-0.284,-0.057,0.34
0.145,0.409,0.264,-0.277,-0.06,0.336
0.145,0.405,0.26,-0.275,-0.058,0.332
0.129,0.39,0.26,-0.259,-0.066,0.324
0.118,0.373,0.255,-0.245,-0.069,0.313
0.111,0.357,0.246,-0.234,-0.068,0.301
0.104,0.342,0.238,-0.223,-0.068,0.29
0.1,0.33,0.23,-0.215,-0.065,0.28
0.092,0.314,0.222,-0.203,-0.065,0.268
0.087,0.301,0.213,-0.194,-0.063,0.257
0.081,0.289,0.208,-0.185,-0.064,0.248
0.075,0.277,0.203,-0.176,-0.064,0.239
0.075,0.265,0.19,-0.17,-0.058,0.227
0.063,0.245,0.182,-0.154,-0.059,0.213
0.053,0.227,0.175,-0.14,-0.061,0.201
0.048,0.212,0.164,-0.13,-0.058,0.188
0.043,0.196,0.153,-0.12,-0.055,0.174
0.035,0.18,0.145,-0.108,-0.055,0.162
0.027,0.164,0.137,-0.096,-0.055,0.15
0.02,0.151,0.131,-0.085,-0.056,0.14
0.009,0.139,0.13,-0.074,-0.061,0.134
-0.002,0.128,0.129,-0.063,-0.065,0.128
-0.005,0.12,0.125,-0.058,-0.065,0.122
-0.013,0.112,0.125,-0.05,-0.069,0.118
-0.018,0.104,0.122,-0.043,-0.07,0.113
-0.023,0.097,0.12,-0.037,-0.072,0.108
-0.033,0.087,0.119,-0.027,-0.076,0.103
-0.035,0.08,0.115,-0.023,-0.075,0.097
-0.018,0.097,0.115,-0.04,-0.067,0.106
-0.016,0.096,0.112,-0.04,-0.064,0.104
-0.024,0.087,0.11,-0.031,-0.067,0.098
-0.024,0.084,0.109,-0.03,-0.067,0.096
-0.02,0.08,0.1,-0.03,-0.06,0.09
-0.024,0.072,0.096,-0.024,-0.06,0.083
-0.026,0.066,0.092,-0.021,-0.059,0.079
-0.024,0.064,0.088,-0.02,-0.057,0.075
-0.026,0.058,0.084,-0.017,-0.055,0.071
-0.03,0.05,0.08,-0.01,-0.055,0.065
-0.03,0.046,0.076,-0.008,-0.054,0.061
-0.029,0.042,0.071,-0.007,-0.051,0.057
-0.032,0.038,0.07,-0.003,-0.051,0.054
-0.035,0.034,0.069,0.001,-0.053,0.051
-0.035,0.03,0.065,0.002,-0.05,0.047
-0.039,0.026,0.065,0.006,-0.053,0.046
-0.041,0.022,0.062,0.009,-0.052,0.042
-0.04,0.02,0.059,0.01,-0.049,0.039
-0.04,0.02,0.06,0.01,-0.05,0.04
-0.04,0.02,0.06,0.01,-0.05,0.04
-0.035,0.02,0.056,0.007,-0.045,0.038
-0.038,0.017,0.055,0.01,-0.047,0.036
-0.039,0.014,0.053,0.012,-0.046,0.034
-0.035,0.015,0.05,0.01,-0.043,0.032
-0.035,0.015,0.05,0.01,-0.043,0.032
-0.03,0.015,0.046,0.007,-0.039,0.031
-0.033,0.012,0.045,0.01,-0.039,0.028
-0.035,0.009,0.045,0.012,-0.04,0.026
-0.036,0.01,0.046,0.012,-0.041,0.028
-0.04,0.01,0.05,0.015,-0.045,0.03
-0.04,0.01,0.05,0.015,-0.045,0.03
-0.039,0.011,0.05,0.014,-0.045,0.03
-0.042,0.008,0.05,0.017,-0.046,0.029
-0.045,0.005,0.05,0.02,-0.048,0.027
-0.045,0.005,0.05,0.02,-0.048,0.027
-0.045,0.005,0.05,0.02,-0.048,0.027
-0.044,0.006,0.049,0.019,-0.047,0.027
-0.049,0.003,0.052,0.023,-0.051,0.027
-0.056,0.0,0.055,0.028,-0.056,0.027
-0.055,0.0,0.055,0.027,-0.055,0.027
-0.055,0.0,0.055,0.027,-0.055,0.027
-0.055,0.0,0.055,0.027,-0.055,0.027
-0.055,0.0,0.055,0.027,-0.055,0.027
-0.055,0.0,0.055,0.027,-0.055,0.027
-0.055,0.0,0.055,0.027,-0.055,0.027
-0.053,0.002,0.055,0.025,-0.054,0.028
-0.066,-0.013,0.053,0.039,-0.059,0.02
-0.067,-0.02,0.047,0.044,-0.057,0.013
-0.069,-0.014,0.054,0.041,-0.061,0.02
-0.09,-0.015,0.075,0.052,-0.082,0.03
-0.087,-0.015,0.072,0.051,-0.079,0.028
-0.081,-0.015,0.066,0.048,-0.073,0.026
-0.078,-0.015,0.063,0.046,-0.07,0.024
-0.074,-0.015,0.059,0.044,-0.066,0.022
-0.07,-0.015,0.055,0.042,-0.062,0.02
-0.066,-0.015,0.051,0.04,-0.058,0.018
-0.062,-0.015,0.047,0.038,-0.054,0.016
-0.058,-0.015,0.043,0.036,-0.05,0.014
-0.054,-0.015,0.039,0.034,-0.046,0.011
-0.05,-0.015,0.035,0.032,-0.042,0.01
-0.051,-0.015,0.035,0.033,-0.042,0.01
-0.044,-0.012,0.032,0.028,-0.038,0.01
-0.039,-0.009,0.03,0.024,-0.035,0.01
-0.039,-0.01,0.029,0.025,-0.034,0.009
-0.035,-0.01,0.025,0.022,-0.03,0.007
-0.035,-0.01,0.025,0.022,-0.03,0.007
-0.033,-0.01,0.023,0.021,-0.028,0.006
-0.027,-0.01,0.017,0.019,-0.022,0.004
-0.025,-0.01,0.015,0.017,-0.02,0.002
-0.025,-0.01,0.015,0.017,-0.02,0.002
-0.021,-0.01,0.011,0.015,-0.016,0.0
-0.02,-0.01,0.01,0.015,-0.015,0.0
-0.018,-0.01,0.008,0.014,-0.013,-0.001
-0.014,-0.01,0.005,0.011,-0.01,-0.002
-0.015,-0.01,0.005,0.012,-0.01,-0.002
-0.019,-0.018,0.001,0.018,-0.01,-0.008
-0.026,-0.026,0.0,0.026,-0.013,-0.013
-0.034,-0.034,0.0,0.034,-0.017,-0.017
-0.042,-0.042,0.0,0.042,-0.021,-0.021
-0.045,-0.045,0.0,0.045,-0.022,-0.022
-0.037,-0.037,0.0,0.037,-0.018,-0.018
-0.032,-0.032,0.0,0.032,-0.016,-0.016
-0.026,-0.026,0.0,0.026,-0.013,-0.013
-0.019,-0.019,0.0,0.019,-0.009,-0.009
-0.015,-0.015,0.0,0.015,-0.007,-0.007
-0.007,-0.007,0.0,0.007,-0.003,-0.003
-0.001,-0.002,-0.001,0.001,0.0,-0.001
-0.002,0.002,0.003,0.0,-0.003,0.002
-0.005,0.006,0.012,0.0,-0.009,0.008
-0.005,0.01,0.015,-0.003,-0.01,0.012
-0.005,0.014,0.019,-0.005,-0.012,0.016
-0.005,0.018,0.023,-0.007,-0.014,0.02
-0.005,0.022,0.027,-0.009,-0.016,0.024
-0.006,0.026,0.031,-0.01,-0.019,0.028
-0.01,0.025,0.035,-0.008,-0.023,0.03
-0.014,0.017,0.031,-0.002,-0.023,0.023
-0.019,0.012,0.03,0.004,-0.024,0.021
-0.02,0.008,0.028,0.006,-0.024,0.018
-0.021,0.004,0.025,0.008,-0.023,0.014
-0.025,0.0,0.025,0.012,-0.025,0.012
-0.025,-0.004,0.021,0.014,-0.022,0.008
-0.028,-0.007,0.02,0.018,-0.024,0.006
-0.032,-0.014,0.018,0.023,-0.025,0.002
-0.036,-0.021,0.015,0.028,-0.025,-0.003
-0.04,-0.025,0.015,0.032,-0.027,-0.005
-0.044,-0.033,0.011,0.038,-0.027,-0.011
-0.049,-0.039,0.01,0.044,-0.029,-0.014
-0.048,-0.039,0.009,0.043,-0.028,-0.015
-0.037,-0.033,0.004,0.035,-0.02,-0.015
-0.035,-0.035,0.0,0.035,-0.017,-0.017
-0.052,-0.056,-0.004,0.055,-0.024,-0.03
-0.051,-0.059,-0.008,0.055,-0.021,-0.033
-0.041,-0.054,-0.013,0.048,-0.014,-0.033
-0.04,-0.054,-0.014,0.048,-0.012,-0.034
-0.035,-0.05,-0.015,0.043,-0.01,-0.032
-0.018,-0.05,-0.032,0.035,0.007,-0.041
-0.015,-0.047,-0.031,0.032,0.008,-0.039
-0.025,-0.045,-0.02,0.035,-0.002,-0.033
-0.031,-0.044,-0.013,0.038,-0.009,-0.029
-0.035,-0.04,-0.005,0.038,-0.015,-0.022
-0.043,-0.04,0.003,0.041,-0.023,-0.018
-0.048,-0.037,0.011,0.042,-0.03,-0.013
-0.052,-0.035,0.018,0.043,-0.034,-0.008
-0.055,-0.034,0.021,0.045,-0.038,-0.006
-0.055,-0.03,0.025,0.042,-0.04,-0.002
-0.059,-0.026,0.033,0.042,-0.046,0.004
-0.06,-0.022,0.038,0.041,-0.049,0.008
-0.06,-0.018,0.042,0.039,-0.051,0.012
-0.06,-0.014,0.046,0.036,-0.052,0.016
-0.06,-0.01,0.05,0.035,-0.055,0.02
-0.064,-0.01,0.054,0.037,-0.059,0.021
-0.069,-0.007,0.062,0.038,-0.065,0.027
-0.084,-0.005,0.08,0.045,-0.081,0.037
-0.095,-0.004,0.091,0.049,-0.092,0.043
-0.085,0.0,0.085,0.042,-0.085,0.042
-0.085,0.0,0.085,0.042,-0.085,0.042
-0.082,0.003,0.085,0.039,-0.084,0.044
-0.08,0.005,0.085,0.037,-0.083,0.045
-0.079,0.006,0.085,0.036,-0.083,0.045
-0.075,0.01,0.085,0.032,-0.08,0.047
-0.075,0.01,0.085,0.032,-0.08,0.047
